x,y
0.0,0.6884164222873901
0.1000083340278356,0.6688660801564027
0.2000166680556713,0.6725317693059628
0.3000250020835069,0.679863147605083
0.4000333361113426,0.6957478005865103
0.5000416701391783,0.7104105571847508
0.6000500041670139,0.6884164222873901
0.7000583381948496,0.6737536656891495
0.8000666722226852,0.6761974584555229
0.900075006250521,0.6713098729227761
1.0000833402783569,0.679863147605083
1.100091674306192,0.6884164222873901
1.200100008334028,0.6725317693059628
1.3001083423618636,0.6737536656891495
1.4001166763896993,0.6884164222873901
1.5001250104175348,0.6920821114369502
1.6001333444453705,0.7104105571847508
1.7001416784732062,0.6896383186705768
1.800150012501042,0.6884164222873901
1.9001583465288776,0.6871945259042033
2.0001666805567133,0.7030791788856305
2.100175014584549,0.7030791788856305
2.2001833486123843,0.6908602150537635
2.30019168264022,0.6871945259042033
2.4002000166680557,0.7189638318670577
2.5002083506958916,0.7030791788856305
2.600216684723727,0.7006353861192571
2.700225018751562,0.7214076246334311
2.8002333527793986,0.717741935483871
2.900241686807234,0.7030791788856305
3.0002500208350695,0.6908602150537635
3.1002583548629055,0.6871945259042033
3.200266688890741,0.6896383186705768
3.300275022918577,0.7006353861192571
3.4002833569464124,0.6908602150537635
3.500291690974248,0.7189638318670577
3.600300025002084,0.7006353861192571
3.7003083590299193,0.7104105571847508
3.800316693057755,0.7324046920821115
3.9003250270855903,0.7067448680351907
4.000333361113427,0.6957478005865103
4.100341695141262,0.6908602150537635
4.200350029169098,0.6994134897360704
4.300358363196933,0.7030791788856305
4.400366697224769,0.6957478005865103
4.500375031252605,0.6945259042033236
4.6003833652804405,0.6933040078201369
4.700391699308276,0.6957478005865103
4.800400033336111,0.7079667644183774
4.900408367363947,0.7189638318670577
5.000416701391783,0.7030791788856305
5.100425035419619,0.6774193548387096
5.200433369447454,0.6933040078201369
5.30044170347529,0.6945259042033236
5.400450037503125,0.6859726295210166
5.500458371530962,0.6810850439882697
5.600466705558797,0.7091886608015641
5.700475039586633,0.696969696969697
5.800483373614468,0.6957478005865103
5.900491707642304,0.7018572825024438
6.000500041670139,0.7189638318670577
6.100508375697975,0.6859726295210166
6.200516709725811,0.6859726295210166
6.300525043753646,0.6933040078201369
6.400533377781482,0.6933040078201369
6.500541711809317,0.6859726295210166
6.600550045837154,0.6859726295210166
6.700558379864989,0.6896383186705768
6.800566713892825,0.6933040078201369
6.90057504792066,0.6823069403714564
7.000583381948496,0.7079667644183774
7.100591715976332,0.7214076246334311
7.200600050004168,0.6908602150537635
7.300608384032003,0.6859726295210166
7.400616718059839,0.6933040078201369
7.500625052087674,0.7030791788856305
7.60063338611551,0.6871945259042033
7.700641720143346,0.7079667644183774
7.800650054171181,0.6933040078201369
7.900658388199017,0.729960899315738
8.000666722226853,0.6908602150537635
8.100675056254689,0.705522971652004
8.200683390282524,0.7140762463343109
8.30069172431036,0.7079667644183774
8.400700058338195,0.6920821114369502
8.50070839236603,0.6871945259042033
8.600716726393866,0.6859726295210166
8.700725060421702,0.6859726295210166
8.800733394449537,0.6835288367546432
8.900741728477374,0.6957478005865103
9.00075006250521,0.6823069403714564
9.100758396533044,0.667644183773216
9.20076673056088,0.7030791788856305
9.300775064588716,0.696969696969697
9.400783398616552,0.7152981427174976
9.500791732644387,0.6945259042033236
9.600800066672225,0.6908602150537635
9.700808400700058,0.6859726295210166
9.800816734727894,0.6933040078201369
9.90082506875573,0.6835288367546432
10.000833402783568,0.6859726295210166
10.100841736811402,0.7006353861192571
10.200850070839238,0.6933040078201369
10.300858404867071,0.7421798631476051
10.400866738894909,0.6920821114369502
10.500875072922744,0.6908602150537635
10.60088340695058,0.7238514173998045
10.700891740978417,0.7140762463343109
10.80090007500625,0.6810850439882697
10.900908409034086,0.6810850439882697
11.000916743061923,0.6896383186705768
11.10092507708976,0.6933040078201369
11.200933411117594,0.6920821114369502
11.30094174514543,0.6933040078201369
11.400950079173263,0.6933040078201369
11.5009584132011,0.6823069403714564
11.600966747228936,0.6884164222873901
11.700975081256772,0.7030791788856305
11.800983415284607,0.6957478005865103
11.900991749312444,0.7006353861192571
12.001000083340278,0.7238514173998045
12.101008417368115,0.6578690127077224
12.20101675139595,0.6908602150537635
12.301025085423786,0.7030791788856305
12.401033419451622,0.6933040078201369
12.501041753479456,0.7018572825024438
12.601050087507293,0.7104105571847508
12.701058421535128,0.7140762463343109
12.801066755562964,0.696969696969697
12.9010750895908,0.6774193548387096
13.001083423618637,0.7104105571847508
13.101091757646472,0.6896383186705768
13.201100091674308,0.7104105571847508
13.301108425702145,0.6810850439882697
13.40111675972998,0.679863147605083
13.501125093757814,0.6859726295210166
13.60113342778565,0.6957478005865103
13.701141761813483,0.6835288367546432
13.80115009584132,0.7275171065493646
13.901158429869156,0.7165200391006843
14.001166763896991,0.7152981427174976
14.101175097924829,0.7226295210166178
14.201183431952664,0.7495112414467253
14.3011917659805,0.7348484848484849
14.401200100008335,0.7324046920821115
14.50120843403617,0.7152981427174976
14.601216768064006,0.6823069403714564
14.701225102091842,0.7226295210166178
14.801233436119675,0.7128543499511242
14.901241770147513,0.7079667644183774
15.001250104175348,0.6933040078201369
15.101258438203184,0.696969696969697
15.20126677223102,0.7152981427174976
15.301275106258856,0.7250733137829912
15.401283440286692,0.6994134897360704
15.501291774314527,0.705522971652004
15.601300108342365,0.6761974584555229
15.701308442370198,0.696969696969697
15.801316776398034,0.6994134897360704
15.90132511042587,0.7128543499511242
16.001333444453707,0.7079667644183774
16.10134177848154,0.7030791788856305
16.201350112509378,0.7128543499511242
16.30135844653721,0.7152981427174976
16.40136678056505,0.7250733137829912
16.501375114592882,0.7262952101661779
16.60138344862072,0.7421798631476051
16.701391782648553,0.7201857282502444
16.80140011667639,0.7152981427174976
16.901408450704228,0.7128543499511242
17.00141678473206,0.7348484848484849
17.1014251187599,0.6859726295210166
17.201433452787732,0.7140762463343109
17.30144178681557,0.7006353861192571
17.401450120843403,0.7104105571847508
17.50145845487124,0.738514173998045
17.601466788899074,0.7128543499511242
17.70147512292691,0.7152981427174976
17.80148345695475,0.7324046920821115
17.901491790982583,0.7165200391006843
18.00150012501042,0.7152981427174976
18.101508459038257,0.7201857282502444
18.20151679306609,0.7226295210166178
18.301525127093925,0.7079667644183774
18.40153346112176,0.7152981427174976
18.501541795149596,0.7421798631476051
18.601550129177433,0.7152981427174976
18.701558463205263,0.7262952101661779
18.801566797233104,0.7336265884652982
18.90157513126094,0.7336265884652982
19.001583465288775,0.7311827956989247
19.101591799316612,0.7470674486803519
19.20160013334445,0.7409579667644184
19.301608467372283,0.7519550342130987
19.401616801400117,0.7495112414467253
19.50162513542795,0.7788367546432062
19.601633469455788,0.7776148582600195
19.701641803483625,0.771505376344086
19.80165013751146,0.759286412512219
19.901658471539296,0.7641739980449658
20.001666805567133,0.7617302052785924
20.101675139594967,0.7495112414467253
20.201683473622804,0.7543988269794721
20.30169180765064,0.7617302052785924
20.401700141678475,0.7470674486803519
20.50170847570631,0.7788367546432062
20.601716809734143,0.7763929618768328
20.70172514376198,0.7861681329423265
20.801733477789817,0.759286412512219
20.901741811817654,0.7678396871945259
21.001750145845488,0.7617302052785924
21.101758479873325,0.7605083088954057
21.20176681390116,0.759286412512219
21.301775147928996,0.7617302052785924
21.40178348195683,0.7495112414467253
21.501791815984667,0.7702834799608993
21.6018001500125,0.7812805474095796
21.70180848404034,0.7812805474095796
21.801816818068172,0.7653958944281525
21.90182515209601,0.7495112414467253
22.001833486123846,0.7421798631476051
22.10184182015168,0.7397360703812317
22.201850154179517,0.7311827956989247
22.30185848820735,0.7214076246334311
22.40186682223519,0.7201857282502444
22.501875156263026,0.7311827956989247
22.60188349029086,0.7189638318670577
22.701891824318693,0.7324046920821115
22.80190015834653,0.7311827956989247
22.901908492374364,0.7226295210166178
23.0019168264022,0.7226295210166178
23.10192516043004,0.7104105571847508
23.201933494457872,0.7226295210166178
23.30194182848571,0.7226295210166178
23.401950162513543,0.7104105571847508
23.50195849654138,0.7348484848484849
23.601966830569214,0.7128543499511242
23.70197516459705,0.7104105571847508
23.801983498624885,0.7165200391006843
23.901991832652723,0.7226295210166178
24.002000166680556,0.7067448680351907
24.102008500708394,0.7018572825024438
24.20201683473623,0.7079667644183774
24.302025168764064,0.7140762463343109
24.4020335027919,0.7128543499511242
24.502041836819735,0.7104105571847508
24.602050170847573,0.7030791788856305
24.702058504875406,0.7030791788856305
24.802066838903244,0.7104105571847508
24.902075172931077,0.7116324535679375
25.002083506958915,0.7030791788856305
25.102091840986752,0.6957478005865103
25.202100175014586,0.6908602150537635
25.302108509042423,0.6994134897360704
25.402116843070257,0.7128543499511242
25.502125177098097,0.6957478005865103
25.602133511125928,0.6933040078201369
25.702141845153765,0.7030791788856305
25.8021501791816,0.7006353861192571
25.902158513209436,0.7152981427174976
26.00216684723727,0.7030791788856305
26.102175181265107,0.6945259042033236
26.202183515292944,0.7006353861192571
26.302191849320774,0.6957478005865103
26.402200183348615,0.6945259042033236
26.50220851737645,0.6945259042033236
26.60221685140429,0.6920821114369502
26.70222518543212,0.6957478005865103
26.802233519459957,0.7067448680351907
26.90224185348779,0.7165200391006843
27.002250187515628,0.6920821114369502
27.10225852154346,0.6908602150537635
27.2022668555713,0.696969696969697
27.302275189599136,0.7079667644183774
27.40228352362697,0.6859726295210166
27.502291857654807,0.7238514173998045
27.60230019168264,0.7030791788856305
27.70230852571048,0.6920821114369502
27.802316859738312,0.7128543499511242
27.90232519376615,0.7067448680351907
28.002333527793983,0.6908602150537635
28.10234186182182,0.6920821114369502
28.202350195849657,0.6933040078201369
28.30235852987749,0.696969696969697
28.40236686390533,0.6871945259042033
28.50237519793316,0.6957478005865103
28.602383531961,0.6920821114369502
28.702391865988833,0.7030791788856305
28.80240020001667,0.7104105571847508
28.902408534044504,0.6908602150537635
29.00241686807234,0.6981915933528837
29.102425202100175,0.6957478005865103
29.202433536128012,0.6908602150537635
29.30244187015585,0.6933040078201369
29.402450204183683,0.7275171065493646
29.50245853821152,0.6908602150537635
29.60246687223935,0.696969696969697
29.70247520626719,0.7128543499511242
29.802483540295025,0.6920821114369502
29.902491874322862,0.6810850439882697
30.002500208350696,0.6994134897360704
30.102508542378533,0.6933040078201369
30.202516876406367,0.6823069403714564
30.302525210434204,0.6774193548387096
30.40253354446204,0.6994134897360704
30.502541878489875,0.6823069403714564
30.602550212517713,0.6920821114369502
30.702558546545543,0.7043010752688172
30.802566880573384,0.6933040078201369
30.902575214601217,0.6725317693059628
31.002583548629055,0.6761974584555229
31.10259188265689,0.6847507331378299
31.20260021668473,0.6933040078201369
31.30260855071256,0.6761974584555229
31.402616884740397,0.6835288367546432
31.50262521876823,0.6884164222873901
31.602633552796068,0.6908602150537635
31.702641886823905,0.7018572825024438
31.80265022085174,0.6884164222873901
31.902658554879576,0.6884164222873901
32.00266688890741,0.6859726295210166
32.10267522293525,0.6774193548387096
32.20268355696308,0.6884164222873901
32.302691890990914,0.6884164222873901
32.402700225018755,0.7018572825024438
32.50270855904659,0.6774193548387096
32.60271689307442,0.6933040078201369
32.70272522710226,0.6908602150537635
32.8027335611301,0.6823069403714564
32.90274189515793,0.679863147605083
33.002750229185764,0.6884164222873901
33.102758563213605,0.6810850439882697
33.20276689724144,0.6835288367546432
33.30277523126927,0.6749755620723362
33.402783565297106,0.7006353861192571
33.50279189932495,0.6761974584555229
33.60280023335278,0.6847507331378299
33.702808567380615,0.6957478005865103
33.802816901408455,0.6774193548387096
33.90282523543629,0.6786412512218963
34.00283356946412,0.6884164222873901
34.10284190349196,0.6713098729227761
34.2028502375198,0.6713098729227761
34.30285857154763,0.6700879765395894
34.402866905575465,0.6835288367546432
34.502875239603306,0.6810850439882697
34.60288357363114,0.6737536656891495
34.70289190765897,0.6761974584555229
34.80290024168681,0.6810850439882697
34.90290857571465,0.6957478005865103
35.00291690974248,0.6737536656891495
35.102925243770315,0.6652003910068426
35.20293357779815,0.6615347018572825
35.30294191182599,0.6725317693059628
35.40295024585382,0.6737536656891495
35.50295857988166,0.667644183773216
35.6029669139095,0.6627565982404692
35.70297524793733,0.7030791788856305
35.802983581965165,0.6639784946236559
35.902991915993,0.6713098729227761
36.00300025002084,0.6810850439882697
36.10300858404867,0.6835288367546432
36.20301691807651,0.6639784946236559
36.30302525210434,0.6615347018572825
36.40303358613218,0.6615347018572825
36.503041920160015,0.6603128054740958
36.60305025418785,0.6615347018572825
36.70305858821569,0.6615347018572825
36.80306692224352,0.6639784946236559
36.90307525627136,0.6639784946236559
37.00308359029919,0.6810850439882697
37.10309192432703,0.6615347018572825
37.203100258354866,0.6737536656891495
37.3031085923827,0.6884164222873901
37.40311692641053,0.6713098729227761
37.503125260438374,0.6566471163245357
37.60313359446621,0.6603128054740958
37.70314192849404,0.6639784946236559
37.80315026252188,0.6529814271749755
37.90315859654971,0.6529814271749755
38.00316693057755,0.655425219941349
38.10317526460538,0.6542033235581622
38.203183598633224,0.6529814271749755
38.30319193266106,0.6456500488758553
38.40320026668889,0.6664222873900293
38.503208600716725,0.6517595307917888
38.603216934744566,0.6529814271749755
38.7032252687724,0.6652003910068426
38.80323360280023,0.6615347018572825
38.903241936828074,0.646871945259042
39.00325027085591,0.6603128054740958
39.10325860488374,0.6639784946236559
39.203266938911575,0.6566471163245357
39.303275272939416,0.6603128054740958
39.40328360696725,0.6578690127077224
39.50329194099509,0.6517595307917888
39.60330027502292,0.6578690127077224
39.70330860905076,0.6542033235581622
39.80331694307859,0.6529814271749755
39.903325277106426,0.6615347018572825
40.003333611134266,0.6835288367546432
40.1033419451621,0.6639784946236559
40.203350279189934,0.6517595307917888
40.30335861321777,0.646871945259042
40.40336694724561,0.6542033235581622
40.50337528127344,0.6639784946236559
40.60338361530128,0.646871945259042
40.70339194932911,0.6480938416422287
40.80340028335695,0.6603128054740958
40.903408617384784,0.6542033235581622
41.00341695141262,0.6859726295210166
41.10342528544046,0.646871945259042
41.20343361946829,0.6652003910068426
41.303441953496126,0.6664222873900293
41.40345028752396,0.6713098729227761
41.5034586215518,0.6639784946236559
41.603466955579634,0.6652003910068426
41.70347528960747,0.6517595307917888
41.80348362363531,0.6859726295210166
41.90349195766314,0.6652003910068426
42.003500291690976,0.6957478005865103
42.10350862571881,0.7104105571847508
42.20351695974665,0.7030791788856305
42.30352529377448,0.6884164222873901
42.40353362780232,0.6957478005865103
42.50354196183015,0.7079667644183774
42.60355029585799,0.7030791788856305
42.703558629885826,0.7201857282502444
42.80356696391366,0.7104105571847508
42.9035752979415,0.7030791788856305
43.003583631969335,0.7128543499511242
43.10359196599717,0.7152981427174976
43.203600300025,0.7165200391006843
43.30360863405284,0.7226295210166178
43.40361696808068,0.7152981427174976
43.50362530210851,0.7116324535679375
43.603633636136344,0.7201857282502444
43.703641970164185,0.738514173998045
43.80365030419202,0.7324046920821115
43.90365863821985,0.7250733137829912
44.00366697224769,0.7262952101661779
44.10367530627553,0.6994134897360704
44.20368364030336,0.7348484848484849
44.303691974331194,0.7311827956989247
44.403700308359035,0.738514173998045
44.50370864238687,0.7348484848484849
44.6037169764147,0.7397360703812317
44.703725310442536,0.7275171065493646
44.80373364447038,0.7226295210166178
44.90374197849821,0.7152981427174976
45.00375031252605,0.7104105571847508
45.103758646553885,0.7067448680351907
45.20376698058172,0.7421798631476051
45.30377531460955,0.7360703812316716
45.403783648637386,0.7324046920821115
45.50379198266523,0.7336265884652982
45.60380031669306,0.7250733137829912
45.703808650720894,0.7201857282502444
45.80381698474873,0.738514173998045
45.90382531877657,0.729960899315738
46.0038336528044,0.7348484848484849
46.10384198683224,0.7336265884652982
46.20385032086008,0.7324046920821115
46.30385865488791,0.729960899315738
46.403866988915745,0.7250733137829912
46.50387532294358,0.7617302052785924
46.60388365697142,0.7531769305962854
46.70389199099925,0.7360703812316716
46.80390032502709,0.7519550342130987
46.90390865905492,0.7226295210166178
47.00391699308276,0.7348484848484849
47.103925327110595,0.7617302052785924
47.20393366113843,0.7812805474095796
47.30394199516627,0.7605083088954057
47.4039503291941,0.7812805474095796
47.50395866322194,0.7653958944281525
47.60396699724977,0.7641739980449658
47.70397533127761,0.759286412512219
47.803983665305445,0.7800586510263929
47.90399199933328,0.7250733137829912
48.00400033336111,0.7641739980449658
48.10400866738895,0.7189638318670577
48.20401700141679,0.7201857282502444
48.30402533544462,0.7262952101661779
48.40403366947246,0.717741935483871
48.504042003500295,0.7324046920821115
48.60405033752813,0.7104105571847508
48.70405867155596,0.7397360703812317
48.8040670055838,0.7262952101661779
48.90407533961164,0.7324046920821115
49.00408367363947,0.7262952101661779
49.104092007667305,0.7348484848484849
49.204100341695145,0.7275171065493646
49.30410867572298,0.7201857282502444
49.40411700975081,0.7201857282502444
49.504125343778654,0.7128543499511242
49.60413367780649,0.771505376344086
49.70414201183432,0.7104105571847508
49.804150345862155,0.7104105571847508
49.90415867989,0.6847507331378299
50.00416701391783,0.6370967741935484
50.10417534794566,0.6077712609970675
50.204183681973504,0.6713098729227761
50.30419201600134,0.5503421309872922
50.40420035002917,0.7910557184750733
50.504208684057005,0.5637829912023461
50.604217018084846,0.6322091886608016
50.70422535211268,0.5918866080156403
50.80423368614051,0.6835288367546432
50.90424202016835,0.5320136852394917
51.00425035419619,0.6627565982404692
51.10425868822402,0.6199902248289345
51.204267022251855,0.634652981427175
51.304275356279696,0.6334310850439883
51.40428369030753,0.5894428152492669
51.50429202433536,0.5857771260997068
51.6043003583632,0.5833333333333334
51.70430869239104,0.593108504398827
51.80431702641887,0.5882209188660802
51.904325360446705,0.6151026392961877
52.00433369447454,0.6126588465298143
52.10434202850238,0.6419843597262952
52.204350362530214,0.6285434995112414
52.30435869655805,0.6542033235581622
52.40436703058589,0.6810850439882697
52.50437536461372,0.646871945259042
52.60438369864155,0.6835288367546432
52.70439203266939,0.6713098729227761
52.80440036669723,0.6517595307917888
52.904408700725064,0.6835288367546432
53.0044170347529,0.6615347018572825
53.10442536878073,0.6859726295210166
53.20443370280857,0.6737536656891495
53.304442036836406,0.6884164222873901
53.40445037086424,0.7152981427174976
53.50445870489208,0.7006353861192571
53.604467038919914,0.6725317693059628
53.70447537294775,0.7006353861192571
53.80448370697558,0.6713098729227761
53.90449204100342,0.6994134897360704
54.004500375031256,0.6761974584555229
54.10450870905909,0.7495112414467253
54.20451704308692,0.6847507331378299
54.30452537711477,0.7128543499511242
54.4045337111426,0.7006353861192571
54.50454204517043,0.7250733137829912
54.60455037919827,0.7189638318670577
54.704558713226106,0.705522971652004
54.80456704725394,0.6871945259042033
54.904575381281774,0.6920821114369502
55.004583715309614,0.696969696969697
55.10459204933745,0.6920821114369502
55.20460038336528,0.6761974584555229
55.30460871739312,0.7067448680351907
55.40461705142096,0.7067448680351907
55.50462538544879,0.729960899315738
55.604633719476624,0.7116324535679375
55.704642053504465,0.7128543499511242
55.8046503875323,0.7152981427174976
55.90465872156013,0.7104105571847508
56.004667055587966,0.7140762463343109
56.10467538961581,0.7104105571847508
56.20468372364364,0.7348484848484849
56.304692057671474,0.7238514173998045
56.40470039169931,0.7152981427174976
56.50470872572715,0.729960899315738
56.60471705975498,0.7275171065493646
56.704725393782816,0.7140762463343109
56.80473372781066,0.7152981427174976
56.90474206183849,0.7018572825024438
57.00475039586632,0.7189638318670577
57.10475872989416,0.7275171065493646
57.204767063922,0.7079667644183774
57.30477539794983,0.7226295210166178
57.404783731977666,0.7275171065493646
57.50479206600551,0.7201857282502444
57.60480040003334,0.7421798631476051
57.704808734061174,0.7226295210166178
57.80481706808901,0.7152981427174976
57.90482540211685,0.7104105571847508
58.00483373614468,0.7165200391006843
58.10484207017251,0.7226295210166178
58.20485040420035,0.7104105571847508
58.30485873822819,0.7104105571847508
58.404867072256025,0.7116324535679375
58.50487540628386,0.7018572825024438
58.6048837403117,0.7152981427174976
58.70489207433953,0.7275171065493646
58.80490040836737,0.7421798631476051
58.9049087423952,0.7165200391006843
59.00491707642304,0.7152981427174976
59.104925410450875,0.7226295210166178
59.20493374447871,0.7128543499511242
59.30494207850654,0.7152981427174976
59.40495041253438,0.7116324535679375
59.50495874656222,0.7128543499511242
59.60496708059005,0.7128543499511242
59.70497541461789,0.7250733137829912
59.804983748645725,0.7116324535679375
59.90499208267356,0.7238514173998045
60.00500041670139,0.7421798631476051
60.10500875072923,0.7152981427174976
60.20501708475707,0.6957478005865103
60.3050254187849,0.7091886608015641
60.405033752812734,0.7152981427174976
60.505042086840575,0.7079667644183774
60.60505042086841,0.7128543499511242
60.70505875489624,0.7104105571847508
60.80506708892408,0.7152981427174976
60.90507542295192,0.7189638318670577
61.00508375697975,0.7128543499511242
61.105092091007585,0.7152981427174976
61.205100425035425,0.7226295210166178
61.30510875906326,0.7226295210166178
61.40511709309109,0.7201857282502444
61.50512542711893,0.6908602150537635
61.60513376114677,0.7067448680351907
61.7051420951746,0.7104105571847508
61.805150429202435,0.7079667644183774
61.90515876323027,0.7189638318670577
62.00516709725811,0.7104105571847508
62.10517543128594,0.7104105571847508
62.20518376531378,0.7275171065493646
62.30519209934162,0.705522971652004
62.40520043336945,0.7152981427174976
62.505208767397285,0.7214076246334311
62.60521710142512,0.7409579667644184
62.70522543545296,0.7275171065493646
62.80523376948079,0.7079667644183774
62.90524210350863,0.7006353861192571
63.00525043753647,0.7043010752688172
63.1052587715643,0.7128543499511242
63.205267105592135,0.7006353861192571
63.30527543961997,0.6994134897360704
63.40528377364781,0.7165200391006843
63.50529210767564,0.7201857282502444
63.60530044170348,0.6920821114369502
63.70530877573131,0.7018572825024438
63.80531710975915,0.7116324535679375
63.905325443786985,0.7214076246334311
64.00533377781483,0.7043010752688172
64.10534211184266,0.6933040078201369
64.2053504458705,0.6908602150537635
64.30535877989833,0.6957478005865103
64.40536711392616,0.7067448680351907
64.505375447954,0.7006353861192571
64.60538378198183,0.7018572825024438
64.70539211600968,0.7018572825024438
64.80540045003751,0.6920821114369502
64.90540878406534,0.6957478005865103
65.00541711809318,0.7226295210166178
65.10542545212101,0.7421798631476051
65.20543378614884,0.7152981427174976
65.30544212017668,0.7006353861192571
65.40545045420453,0.7116324535679375
65.50545878823236,0.7152981427174976
65.6054671222602,0.6920821114369502
65.70547545628803,0.7128543499511242
65.80548379031586,0.7152981427174976
65.9054921243437,0.7006353861192571
66.00550045837153,0.7262952101661779
66.10550879239938,0.7226295210166178
66.20551712642721,0.7152981427174976
66.30552546045504,0.7311827956989247
66.40553379448288,0.7226295210166178
66.50554212851071,0.7226295210166178
66.60555046253855,0.6957478005865103
66.70555879656638,0.7152981427174976
66.80556713059421,0.7116324535679375
66.90557546462206,0.7128543499511242
67.0055837986499,0.7104105571847508
67.10559213267773,0.7006353861192571
67.20560046670556,0.7311827956989247
67.3056088007334,0.7128543499511242
67.40561713476123,0.7152981427174976
67.50562546878906,0.7348484848484849
67.60563380281691,0.750733137829912
67.70564213684474,0.7324046920821115
67.80565047087258,0.7152981427174976
67.90565880490041,0.7116324535679375
68.00566713892825,0.6994134897360704
68.10567547295608,0.7519550342130987
68.20568380698391,0.729960899315738
68.30569214101176,0.7116324535679375
68.4057004750396,0.7458455522971652
68.50570880906743,0.7104105571847508
68.60571714309526,0.7165200391006843
68.7057254771231,0.7262952101661779
68.80573381115093,0.7421798631476051
68.90574214517876,0.7104105571847508
69.00575047920661,0.7128543499511242
69.10575881323444,0.7043010752688172
69.20576714726228,0.7018572825024438
69.30577548129011,0.7104105571847508
69.40578381531795,0.7214076246334311
69.50579214934578,0.7152981427174976
69.60580048337361,0.7311827956989247
69.70580881740145,0.7189638318670577
69.8058171514293,0.729960899315738
69.90582548545713,0.7495112414467253
70.00583381948496,0.7324046920821115
70.1058421535128,0.7128543499511242
70.20585048754063,0.7104105571847508
70.30585882156846,0.7104105571847508
70.4058671555963,0.7287390029325513
70.50587548962415,0.7324046920821115
70.60588382365198,0.7250733137829912
70.70589215767981,0.7116324535679375
70.80590049170765,0.717741935483871
70.90590882573548,0.7324046920821115
71.00591715976331,0.729960899315738
71.10592549379115,0.7543988269794721
71.205933827819,0.7372922776148583
71.30594216184683,0.7250733137829912
71.40595049587466,0.7214076246334311
71.5059588299025,0.7324046920821115
71.60596716393033,0.7140762463343109
71.70597549795816,0.7311827956989247
71.805983831986,0.7116324535679375
71.90599216601383,0.7678396871945259
72.00600050004168,0.7421798631476051
72.10600883406951,0.7348484848484849
72.20601716809735,0.7543988269794721
72.30602550212518,0.7519550342130987
72.40603383615301,0.729960899315738
72.50604217018085,0.7250733137829912
72.60605050420868,0.7311827956989247
72.70605883823653,0.729960899315738
72.80606717226436,0.7311827956989247
72.9060755062922,0.738514173998045
73.00608384032003,0.7434017595307918
73.10609217434786,0.7250733137829912
73.2061005083757,0.7348484848484849
73.30610884240353,0.7580645161290323
73.40611717643138,0.771505376344086
73.50612551045921,0.7397360703812317
73.60613384448705,0.7360703812316716
73.70614217851488,0.7458455522971652
73.80615051254271,0.7519550342130987
73.90615884657055,0.7397360703812317
74.00616718059838,0.7348484848484849
74.10617551462622,0.7409579667644184
74.20618384865406,0.7543988269794721
74.3061921826819,0.7152981427174976
74.40620051670973,0.7519550342130987
74.50620885073756,0.7458455522971652
74.6062171847654,0.7641739980449658
74.70622551879323,0.7434017595307918
74.80623385282107,0.7434017595307918
74.90624218684891,0.7397360703812317
75.00625052087675,0.7495112414467253
75.10625885490458,0.7434017595307918
75.20626718893242,0.7519550342130987
75.30627552296025,0.7409579667644184
75.40628385698808,0.7641739980449658
75.50629219101592,0.7421798631476051
75.60630052504376,0.7556207233626588
75.7063088590716,0.759286412512219
75.80631719309943,0.7495112414467253
75.90632552712727,0.7434017595307918
76.0063338611551,0.7446236559139785
76.10634219518293,0.7360703812316716
76.20635052921077,0.7336265884652982
76.30635886323861,0.7543988269794721
76.40636719726645,0.7397360703812317
76.50637553129428,0.7348484848484849
76.60638386532212,0.7641739980449658
76.70639219934995,0.7495112414467253
76.80640053337778,0.7495112414467253
76.90640886740562,0.7776148582600195
77.00641720143345,0.7495112414467253
77.1064255354613,0.7495112414467253
77.20643386948913,0.7519550342130987
77.30644220351697,0.7519550342130987
77.4064505375448,0.7495112414467253
77.50645887157263,0.750733137829912
77.60646720560047,0.7580645161290323
77.7064755396283,0.7543988269794721
77.80648387365615,0.759286412512219
77.90649220768398,0.7495112414467253
78.00650054171182,0.7568426197458455
78.10650887573965,0.7617302052785924
78.20651720976748,0.7543988269794721
78.30652554379532,0.7849462365591398
78.40653387782315,0.7556207233626588
78.506542211851,0.750733137829912
78.60655054587883,0.7543988269794721
78.70655887990667,0.7519550342130987
78.8065672139345,0.7397360703812317
78.90657554796233,0.7556207233626588
79.00658388199017,0.7617302052785924
79.106592216018,0.7434017595307918
79.20660055004583,0.7470674486803519
79.30660888407368,0.7397360703812317
79.40661721810152,0.7531769305962854
79.50662555212935,0.7641739980449658
79.60663388615718,0.7739491691104594
79.70664222018502,0.7495112414467253
79.80665055421285,0.7580645161290323
79.90665888824068,0.771505376344086
80.00666722226853,0.7348484848484849
80.10667555629637,0.7495112414467253
80.2066838903242,0.7580645161290323
80.30669222435203,0.7543988269794721
80.40670055837987,0.750733137829912
80.5067088924077,0.7495112414467253
80.60671722643553,0.7776148582600195
80.70672556046338,0.7641739980449658
80.80673389449122,0.7641739980449658
80.90674222851905,0.7739491691104594
81.00675056254688,0.783724340175953
81.10675889657472,0.7397360703812317
81.20676723060255,0.7495112414467253
81.30677556463039,0.7434017595307918
81.40678389865822,0.7617302052785924
81.50679223268607,0.7495112414467253
81.6068005667139,0.7470674486803519
81.70680890074173,0.7434017595307918
81.80681723476957,0.7617302052785924
81.9068255687974,0.7495112414467253
82.00683390282524,0.7201857282502444
82.10684223685307,0.7580645161290323
82.20685057088092,0.7629521016617791
82.30685890490875,0.7886119257086999
82.40686723893658,0.750733137829912
82.50687557296442,0.7568426197458455
82.60688390699225,0.7519550342130987
82.70689224102009,0.750733137829912
82.80690057504792,0.7495112414467253
82.90690890907577,0.7519550342130987
83.0069172431036,0.7543988269794721
83.10692557713143,0.7348484848484849
83.20693391115927,0.7409579667644184
83.3069422451871,0.7617302052785924
83.40695057921494,0.7641739980449658
83.50695891324277,0.7751710654936461
83.60696724727062,0.8057184750733137
83.70697558129845,0.750733137829912
83.80698391532628,0.7543988269794721
83.90699224935412,0.7531769305962854
84.00700058338195,0.7543988269794721
84.10700891740979,0.7495112414467253
84.20701725143762,0.7519550342130987
84.30702558546545,0.7617302052785924
84.4070339194933,0.7446236559139785
84.50704225352113,0.7690615835777126
84.60705058754897,0.7458455522971652
84.7070589215768,0.7531769305962854
84.80706725560464,0.7543988269794721
84.90707558963247,0.7397360703812317
85.0070839236603,0.738514173998045
85.10709225768815,0.7397360703812317
85.20710059171599,0.7360703812316716
85.30710892574382,0.7434017595307918
85.40711725977165,0.7421798631476051
85.50712559379949,0.7495112414467253
85.60713392782732,0.7262952101661779
85.70714226185515,0.7580645161290323
85.807150595883,0.7446236559139785
85.90715892991084,0.7495112414467253
86.00716726393867,0.7641739980449658
86.1071755979665,0.7580645161290323
86.20718393199434,0.7519550342130987
86.30719226602217,0.7348484848484849
86.40720060005,0.7421798631476051
86.50720893407784,0.7519550342130987
86.60721726810569,0.729960899315738
86.70722560213352,0.7348484848484849
86.80723393616135,0.738514173998045
86.90724227018919,0.7519550342130987
87.00725060421702,0.7348484848484849
87.10725893824485,0.7556207233626588
87.20726727227269,0.7727272727272727
87.30727560630054,0.7470674486803519
87.40728394032837,0.7470674486803519
87.5072922743562,0.7458455522971652
87.60730060838404,0.7519550342130987
87.70730894241187,0.7360703812316716
87.8073172764397,0.7470674486803519
87.90732561046754,0.738514173998045
88.00733394449539,0.7641739980449658
88.10734227852322,0.7495112414467253
88.20735061255105,0.7519550342130987
88.30735894657889,0.771505376344086
88.40736728060672,0.7739491691104594
88.50737561463455,0.7470674486803519
88.60738394866239,0.7617302052785924
88.70739228269022,0.7519550342130987
88.80740061671807,0.7409579667644184
88.9074089507459,0.7495112414467253
89.00741728477374,0.7519550342130987
89.10742561880157,0.7421798631476051
89.2074339528294,0.7495112414467253
89.30744228685724,0.7470674486803519
89.40745062088507,0.7519550342130987
89.50745895491292,0.7617302052785924
89.60746728894075,0.7739491691104594
89.70747562296859,0.7470674486803519
89.80748395699642,0.738514173998045
89.90749229102425,0.7617302052785924
90.00750062505209,0.7470674486803519
90.10750895907992,0.7531769305962854
90.20751729310776,0.7543988269794721
90.3075256271356,0.7495112414467253
90.40753396116344,0.7287390029325513
90.50754229519129,0.7543988269794721
90.6075506292191,0.7641739980449658
90.70755896324694,0.7812805474095796
90.80756729727476,0.7556207233626588
90.9075756313026,0.7495112414467253
91.00758396533044,0.7495112414467253
91.10759229935827,0.750733137829912
91.20760063338612,0.7495112414467253
91.30760896741396,0.7495112414467253
91.4076173014418,0.7434017595307918
91.50762563546962,0.783724340175953
91.60763396949746,0.7495112414467253
91.7076423035253,0.7617302052785924
91.80765063755314,0.7617302052785924
91.90765897158096,0.7690615835777126
92.0076673056088,0.7397360703812317
92.10767563963664,0.7482893450635386
92.20768397366449,0.7531769305962854
92.3076923076923,0.7470674486803519
92.40770064172015,0.7397360703812317
92.507708975748,0.7434017595307918
92.60771730977582,0.7495112414467253
92.70772564380366,0.7495112414467253
92.80773397783148,0.771505376344086
92.90774231185932,0.7519550342130987
93.00775064588716,0.7495112414467253
93.107758979915,0.7641739980449658
93.20776731394284,0.7678396871945259
93.30777564797069,0.7543988269794721
93.4077839819985,0.7397360703812317
93.50779231602634,0.7495112414467253
93.60780065005416,0.7458455522971652
93.707808984082,0.7495112414467253
93.80781731810984,0.7470674486803519
93.90782565213767,0.7409579667644184
94.00783398616552,0.7519550342130987
94.10784232019336,0.7495112414467253
94.2078506542212,0.7397360703812317
94.30785898824902,0.7458455522971652
94.40786732227686,0.7470674486803519
94.50787565630468,0.7543988269794721
94.60788399033254,0.771505376344086
94.70789232436036,0.7519550342130987
94.8079006583882,0.7397360703812317
94.90790899241604,0.7397360703812317
95.00791732644387,0.7421798631476051
95.10792566047172,0.7446236559139785
95.20793399449954,0.729960899315738
95.3079423285274,0.7348484848484849
95.40795066255522,0.738514173998045
95.50795899658306,0.7519550342130987
95.60796733061088,0.7397360703812317
95.70797566463872,0.7324046920821115
95.80798399866656,0.7421798631476051
95.9079923326944,0.7495112414467253
96.00800066672222,0.759286412512219
96.10800900075007,0.738514173998045
96.2080173347779,0.7421798631476051
96.30802566880574,0.7262952101661779
96.40803400283356,0.7348484848484849
96.5080423368614,0.7409579667644184
96.60805067088924,0.7348484848484849
96.70805900491708,0.7360703812316716
96.80806733894492,0.7421798631476051
96.90807567297276,0.7434017595307918
97.0080840070006,0.7470674486803519
97.10809234102842,0.729960899315738
97.20810067505626,0.7519550342130987
97.30810900908408,0.7519550342130987
97.40811734311193,0.7653958944281525
97.50812567713976,0.7434017595307918
97.6081340111676,0.7458455522971652
97.70814234519544,0.7348484848484849
97.80815067922327,0.7495112414467253
97.90815901325112,0.7421798631476051
98.00816734727894,0.7421798631476051
98.10817568130678,0.7397360703812317
98.2081840153346,0.7250733137829912
98.30819234936246,0.7580645161290323
98.40820068339028,0.729960899315738
98.50820901741812,0.7397360703812317
98.60821735144596,0.7434017595307918
98.7082256854738,0.7617302052785924
98.80823401950164,0.7250733137829912
98.90824235352946,0.729960899315738
99.00825068755732,0.7275171065493646
99.10825902158514,0.7226295210166178
99.20826735561296,0.7201857282502444
99.3082756896408,0.6823069403714564
99.40828402366864,0.679863147605083
99.50829235769648,0.6737536656891495
99.60830069172432,0.6859726295210166
99.70830902575216,0.6749755620723362
99.80831735978,0.6761974584555229
99.90832569380784,0.6810850439882697
100.00833402783566,0.6761974584555229
100.10834236186348,0.679863147605083
100.20835069589133,0.6688660801564027
100.30835902991916,0.6713098729227761
100.408367363947,0.6835288367546432
100.50837569797484,0.6835288367546432
100.60838403200268,0.6713098729227761
100.70839236603052,0.6774193548387096
100.80840070005834,0.6700879765395894
100.90840903408618,0.7067448680351907
101.008417368114,0.6810850439882697
101.10842570214184,0.6884164222873901
101.20843403616968,0.7030791788856305
101.30844237019753,0.6908602150537635
101.40845070422536,0.6810850439882697
101.5084590382532,0.6847507331378299
101.60846737228104,0.6933040078201369
101.70847570630886,0.6810850439882697
101.8084840403367,0.6859726295210166
101.90849237436454,0.6847507331378299
102.00850070839238,0.6957478005865103
102.1085090424202,0.6774193548387096
102.20851737644804,0.6761974584555229
102.30852571047588,0.679863147605083
102.40853404450372,0.696969696969697
102.50854237853154,0.7018572825024438
102.6085507125594,0.7226295210166178
102.70855904658724,0.6933040078201369
102.80856738061506,0.6871945259042033
102.9085757146429,0.6859726295210166
103.00858404867073,0.6896383186705768
103.10859238269856,0.6957478005865103
103.2086007167264,0.6908602150537635
103.30860905075424,0.7030791788856305
103.40861738478208,0.7030791788856305
103.50862571880992,0.7250733137829912
103.60863405283774,0.6957478005865103
103.70864238686558,0.7067448680351907
103.8086507208934,0.7275171065493646
103.90865905492124,0.7152981427174976
104.00866738894908,0.7006353861192571
104.10867572297693,0.6994134897360704
104.20868405700476,0.7006353861192571
104.3086923910326,0.7006353861192571
104.40870072506044,0.6994134897360704
104.50870905908826,0.7079667644183774
104.6087173931161,0.6957478005865103
104.70872572714391,0.7030791788856305
104.80873406117178,0.7030791788856305
104.9087423951996,0.7104105571847508
105.00875072922744,0.7006353861192571
105.10875906325528,0.7226295210166178
105.20876739728313,0.7250733137829912
105.30877573131094,0.7104105571847508
105.40878406533878,0.7091886608015641
105.5087923993666,0.7128543499511242
105.60880073339446,0.7079667644183774
105.7088090674223,0.7079667644183774
105.80881740145011,0.7067448680351907
105.90882573547796,0.7152981427174976
106.0088340695058,0.7201857282502444
106.10884240353364,0.705522971652004
106.20885073756146,0.7519550342130987
106.30885907158932,0.7152981427174976
106.40886740561714,0.7226295210166178
106.50887573964498,0.7421798631476051
106.6088840736728,0.7360703812316716
106.70889240770065,0.7165200391006843
106.80890074172848,0.7067448680351907
106.90890907575633,0.7324046920821115
107.00891740978416,0.7152981427174976
107.108925743812,0.7152981427174976
107.20893407783984,0.7189638318670577
107.30894241186766,0.7324046920821115
107.4089507458955,0.7152981427174976
107.50895907992332,0.7666177908113392
107.60896741395116,0.7250733137829912
107.708975747979,0.7348484848484849
107.80898408200684,0.7543988269794721
107.90899241603468,0.7446236559139785
108.00900075006253,0.7250733137829912
108.10900908409036,0.7250733137829912
108.20901741811818,0.738514173998045
108.309025752146,0.729960899315738
108.40903408617385,0.729960899315738
108.5090424202017,0.7275171065493646
108.60905075422951,0.7421798631476051
108.70905908825736,0.7262952101661779
108.8090674222852,0.7495112414467253
108.90907575631304,0.738514173998045
109.00908409034086,0.7446236559139785
109.1090924243687,0.7470674486803519
109.20910075839654,0.7470674486803519
109.30910909242438,0.738514173998045
109.4091174264522,0.7348484848484849
109.50912576048005,0.7311827956989247
109.60913409450788,0.7324046920821115
109.70914242853571,0.7348484848484849
109.80915076256356,0.7348484848484849
109.9091590965914,0.729960899315738
110.00916743061924,0.7434017595307918
110.10917576464706,0.7348484848484849
110.2091840986749,0.7470674486803519
110.30919243270272,0.7421798631476051
110.40920076673056,0.7519550342130987
110.5092091007584,0.7605083088954057
110.60921743478625,0.7348484848484849
110.70922576881408,0.738514173998045
110.80923410284193,0.7519550342130987
110.90924243686976,0.729960899315738
111.00925077089758,0.7311827956989247
111.1092591049254,0.738514173998045
111.20926743895323,0.7519550342130987
111.30927577298108,0.7311827956989247
111.40928410700892,0.7311827956989247
111.50929244103676,0.7653958944281525
111.6093007750646,0.7495112414467253
111.70930910909244,0.7543988269794721
111.80931744312026,0.7751710654936461
111.9093257771481,0.7653958944281525
112.00933411117592,0.7470674486803519
112.10934244520378,0.7495112414467253
112.2093507792316,0.7519550342130987
112.30935911325945,0.7519550342130987
112.40936744728728,0.7495112414467253
112.50937578131511,0.7543988269794721
112.60938411534296,0.7580645161290323
112.70939244937078,0.7495112414467253
112.80940078339862,0.7861681329423265
112.90940911742646,0.771505376344086
113.0094174514543,0.7617302052785924
113.10942578548212,0.7690615835777126
113.20943411950996,0.7910557184750733
113.3094424535378,0.7617302052785924
113.40945078756565,0.7556207233626588
113.50945912159348,0.7543988269794721
113.60946745562131,0.7580645161290323
113.70947578964916,0.7641739980449658
113.80948412367698,0.7641739980449658
113.9094924577048,0.771505376344086
114.00950079173263,0.7617302052785924
114.10950912576048,0.7739491691104594
114.20951745978832,0.759286412512219
114.30952579381616,0.7617302052785924
114.409534127844,0.783724340175953
114.50954246187185,0.7702834799608993
114.60955079589966,0.7543988269794721
114.7095591299275,0.7678396871945259
114.80956746395532,0.759286412512219
114.90957579798317,0.7641739980449658
115.009584132011,0.7605083088954057
115.10959246603883,0.771505376344086
115.20960080006668,0.7605083088954057
115.30960913409452,0.7641739980449658
115.40961746812236,0.8057184750733137
115.50962580215018,0.759286412512219
115.60963413617802,0.7653958944281525
115.70964247020584,0.7812805474095796
115.8096508042337,0.7788367546432062
115.90965913826152,0.7641739980449658
116.00966747228937,0.7702834799608993
116.1096758063172,0.7641739980449658
116.20968414034505,0.7702834799608993
116.30969247437288,0.7812805474095796
116.4097008084007,0.771505376344086
116.50970914242856,0.7702834799608993
116.60971747645638,0.7739491691104594
116.70972581048422,0.771505376344086
116.80973414451203,0.8203812316715542
116.90974247853988,0.7788367546432062
117.00975081256772,0.7739491691104594
117.10975914659556,0.7898338220918866
117.2097674806234,0.7910557184750733
117.30977581465125,0.7690615835777126
117.40978414867908,0.7690615835777126
117.5097924827069,0.7812805474095796
117.60980081673472,0.7739491691104594
117.70980915076257,0.7653958944281525
117.8098174847904,0.7751710654936461
117.90982581881823,0.7812805474095796
118.00983415284608,0.7641739980449658
118.10984248687392,0.7641739980449658
118.20985082090176,0.7825024437927663
118.30985915492958,0.7739491691104594
118.40986748895742,0.7702834799608993
118.50987582298524,0.79227761485826
118.60988415701308,0.7788367546432062
118.70989249104092,0.7690615835777126
118.80990082506877,0.7812805474095796
118.9099091590966,0.7739491691104594
119.00991749312443,0.7739491691104594
119.10992582715228,0.7678396871945259
119.2099341611801,0.7751710654936461
119.30994249520792,0.7641739980449658
119.40995082923578,0.7653958944281525
119.50995916326362,0.7727272727272727
119.60996749729144,0.8032746823069403
119.70997583131928,0.7690615835777126
119.80998416534712,0.7776148582600195
119.90999249937497,0.7934995112414467
