x,y
0.0,0.6957478005865103
0.010000909173561234,0.6859726295210166
0.020001818347122467,0.6871945259042033
0.0300027275206837,0.6908602150537635
0.040003636694244935,0.6823069403714564
0.05000454586780617,0.7030791788856305
0.0600054550413674,0.6896383186705768
0.07000636421492863,0.6933040078201369
0.08000727338848987,0.6908602150537635
0.0900081825620511,0.6823069403714564
0.10000909173561234,0.6859726295210166
0.11001000090917357,0.6859726295210166
0.1200109100827348,0.6933040078201369
0.13001181925629604,0.6920821114369502
0.14001272842985726,0.6933040078201369
0.15001363760341851,0.6957478005865103
0.16001454677697974,0.6908602150537635
0.17001545595054096,0.6859726295210166
0.1800163651241022,0.6908602150537635
0.19001727429766344,0.6859726295210166
0.2000181834712247,0.6933040078201369
0.2100190926447859,0.6896383186705768
0.22002000181834713,0.6933040078201369
0.23002091099190838,0.6933040078201369
0.2400218201654696,0.6859726295210166
0.25002272933903086,0.6859726295210166
0.2600236385125921,0.6908602150537635
0.2700245476861533,0.6823069403714564
0.2800254568597145,0.6933040078201369
0.29002636603327575,0.6896383186705768
0.30002727520683703,0.6933040078201369
0.31002818438039825,0.6957478005865103
0.3200290935539595,0.6920821114369502
0.3300300027275207,0.6810850439882697
0.3400309119010819,0.6908602150537635
0.3500318210746432,0.6823069403714564
0.3600327302482044,0.6933040078201369
0.37003363942176565,0.6896383186705768
0.38003454859532687,0.696969696969697
0.3900354577688881,0.7030791788856305
0.4000363669424494,0.6908602150537635
0.4100372761160106,0.6957478005865103
0.4200381852895718,0.6957478005865103
0.43003909446313304,0.6859726295210166
0.44004000363669427,0.6945259042033236
0.4500409128102555,0.6945259042033236
0.46004182198381677,0.6933040078201369
0.470042731157378,0.6957478005865103
0.4800436403309392,0.6859726295210166
0.49004454950450044,0.6859726295210166
0.5000454586780617,0.6859726295210166
0.5100463678516229,0.6908602150537635
0.5200472770251842,0.6884164222873901
0.5300481861987454,0.6896383186705768
0.5400490953723066,0.6933040078201369
0.5500500045458678,0.6933040078201369
0.560050913719429,0.6908602150537635
0.5700518228929903,0.6908602150537635
0.5800527320665515,0.7006353861192571
0.5900536412401128,0.7214076246334311
0.6000545504136741,0.7348484848484849
0.6100554595872353,0.7238514173998045
0.6200563687607965,0.7140762463343109
0.6300572779343577,0.7152981427174976
0.640058187107919,0.7104105571847508
0.6500590962814802,0.6713098729227761
0.6600600054550414,0.6810850439882697
0.6700609146286026,0.6859726295210166
0.6800618238021638,0.6945259042033236
0.6900627329757251,0.6981915933528837
0.7000636421492864,0.6945259042033236
0.7100645513228476,0.7030791788856305
0.7200654604964088,0.6871945259042033
0.7300663696699701,0.6859726295210166
0.7400672788435313,0.6908602150537635
0.7500681880170925,0.6859726295210166
0.7600690971906537,0.6957478005865103
0.770070006364215,0.6994134897360704
0.7800709155377762,0.6933040078201369
0.7900718247113374,0.7030791788856305
0.8000727338848987,0.6908602150537635
0.81007364305846,0.6957478005865103
0.8200745522320212,0.6957478005865103
0.8300754614055824,0.6957478005865103
0.8400763705791436,0.7030791788856305
0.8500772797527049,0.6994134897360704
0.8600781889262661,0.7030791788856305
0.8700790980998273,0.7043010752688172
0.8800800072733885,0.7104105571847508
0.8900809164469498,0.7018572825024438
0.900081825620511,0.7079667644183774
0.9100827347940723,0.7104105571847508
0.9200836439676335,0.7128543499511242
0.9300845531411948,0.7128543499511242
0.940085462314756,0.7324046920821115
0.9500863714883172,0.7152981427174976
0.9600872806618784,0.7152981427174976
0.9700881898354397,0.7250733137829912
0.9800890990090009,0.7152981427174976
0.9900900081825621,0.7275171065493646
1.0000909173561234,0.7189638318670577
1.0100918265296845,0.7128543499511242
1.0200927357032459,0.7128543499511242
1.030093644876807,0.7006353861192571
1.0400945540503683,0.6908602150537635
1.0500954632239294,0.6908602150537635
1.0600963723974908,0.6871945259042033
1.070097281571052,0.6945259042033236
1.0800981907446132,0.6896383186705768
1.0900990999181746,0.6933040078201369
1.1001000090917357,0.7030791788856305
1.110100918265297,0.6859726295210166
1.120101827438858,0.6859726295210166
1.1301027366124194,0.6871945259042033
1.1401036457859806,0.6823069403714564
1.150104554959542,0.6945259042033236
1.160105464133103,0.6823069403714564
1.1701063733066643,0.6933040078201369
1.1801072824802257,0.6933040078201369
1.1901081916537868,0.6908602150537635
1.2001091008273481,0.6823069403714564
1.2101100100009092,0.6908602150537635
1.2201109191744706,0.6859726295210166
1.2301118283480317,0.6933040078201369
1.240112737521593,0.6896383186705768
1.2501136466951541,0.6945259042033236
1.2601145558687155,0.6933040078201369
1.2701154650422766,0.6957478005865103
1.280116374215838,0.6823069403714564
1.2901172833893992,0.6859726295210166
1.3001181925629604,0.6859726295210166
1.3101191017365217,0.6933040078201369
1.3201200109100828,0.6896383186705768
1.3301209200836441,0.6933040078201369
1.3401218292572052,0.7030791788856305
1.3501227384307666,0.6908602150537635
1.3601236476043277,0.6810850439882697
1.370124556777889,0.6871945259042033
1.3801254659514501,0.6871945259042033
1.3901263751250115,0.6933040078201369
1.4001272842985728,0.6896383186705768
1.410128193472134,0.6957478005865103
1.4201291026456953,0.6908602150537635
1.4301300118192564,0.6823069403714564
1.4401309209928177,0.6859726295210166
1.4501318301663788,0.6908602150537635
1.4601327393399401,0.6945259042033236
1.4701336485135013,0.6896383186705768
1.4801345576870626,0.6933040078201369
1.4901354668606237,0.6957478005865103
1.500136376034185,0.6908602150537635
1.5101372852077464,0.6859726295210166
1.5201381943813075,0.6859726295210166
1.5301391035548688,0.6871945259042033
1.54014001272843,0.6957478005865103
1.5501409219019913,0.679863147605083
1.5601418310755524,0.6933040078201369
1.5701427402491137,0.6957478005865103
1.5801436494226748,0.6908602150537635
1.5901445585962362,0.6823069403714564
1.6001454677697975,0.6908602150537635
1.6101463769433586,0.6823069403714564
1.62014728611692,0.6933040078201369
1.630148195290481,0.6847507331378299
1.6401491044640424,0.6957478005865103
1.6501500136376035,0.6933040078201369
1.6601509228111648,0.6920821114369502
1.670151831984726,0.6871945259042033
1.6801527411582873,0.6908602150537635
1.6901536503318484,0.6871945259042033
1.7001545595054097,0.6896383186705768
1.710155468678971,0.6957478005865103
1.7201563778525322,0.696969696969697
1.7301572870260935,0.6957478005865103
1.7401581961996546,0.6871945259042033
1.750159105373216,0.6908602150537635
1.760160014546777,0.6774193548387096
1.7701609237203384,0.6933040078201369
1.7801618328938995,0.6847507331378299
1.7901627420674608,0.6933040078201369
1.800163651241022,0.6933040078201369
1.8101645604145833,0.6859726295210166
1.8201654695881446,0.6810850439882697
1.8301663787617057,0.6908602150537635
1.840167287935267,0.6810850439882697
1.8501681971088282,0.6933040078201369
1.8601691062823895,0.6994134897360704
1.8701700154559506,0.7128543499511242
1.880170924629512,0.7324046920821115
1.890171833803073,0.729960899315738
1.9001727429766344,0.7201857282502444
1.9101736521501955,0.7116324535679375
1.9201745613237569,0.7104105571847508
1.9301754704973182,0.7043010752688172
1.9401763796708793,0.679863147605083
1.9501772888444406,0.6884164222873901
1.9601781980180017,0.6957478005865103
1.970179107191563,0.6957478005865103
1.9801800163651242,0.6957478005865103
1.9901809255386855,0.6908602150537635
2.000181834712247,0.6933040078201369
2.010182743885808,0.6896383186705768
2.020183653059369,0.6957478005865103
2.0301845622329306,0.7030791788856305
2.0401854714064918,0.6908602150537635
2.050186380580053,0.6871945259042033
2.060187289753614,0.6957478005865103
2.0701881989271755,0.6908602150537635
2.0801891081007367,0.6945259042033236
2.0901900172742978,0.6981915933528837
2.100190926447859,0.7030791788856305
2.1101918356214204,0.7030791788856305
2.1201927447949815,0.7006353861192571
2.1301936539685427,0.6859726295210166
2.140194563142104,0.7006353861192571
2.1501954723156653,0.6957478005865103
2.1601963814892264,0.7128543499511242
2.1701972906627875,0.7043010752688172
2.180198199836349,0.7043010752688172
2.19019910900991,0.7152981427174976
2.2002000181834713,0.7104105571847508
2.2102009273570324,0.7116324535679375
2.220201836530594,0.7104105571847508
2.230202745704155,0.7104105571847508
2.240203654877716,0.7226295210166178
2.250204564051278,0.717741935483871
2.260205473224839,0.7226295210166178
2.2702063823984,0.7226295210166178
2.280207291571961,0.7104105571847508
2.2902082007455227,0.7104105571847508
2.300209109919084,0.7104105571847508
2.310210019092645,0.7006353861192571
2.320210928266206,0.7030791788856305
2.3302118374397676,0.6994134897360704
2.3402127466133287,0.7030791788856305
2.35021365578689,0.7030791788856305
2.3602145649604513,0.6908602150537635
2.3702154741340125,0.6908602150537635
2.3802163833075736,0.6957478005865103
2.3902172924811347,0.6871945259042033
2.4002182016546962,0.6871945259042033
2.4102191108282573,0.6884164222873901
2.4202200200018185,0.6933040078201369
2.4302209291753796,0.6859726295210166
2.440221838348941,0.6859726295210166
2.4502227475225022,0.6908602150537635
2.4602236566960634,0.6859726295210166
2.470224565869625,0.6933040078201369
2.480225475043186,0.6896383186705768
2.490226384216747,0.6884164222873901
2.5002272933903082,0.6957478005865103
2.51022820256387,0.6859726295210166
2.520229111737431,0.6859726295210166
2.530230020910992,0.6908602150537635
2.540230930084553,0.6884164222873901
2.5502318392581147,0.6896383186705768
2.560232748431676,0.6933040078201369
2.570233657605237,0.6945259042033236
2.5802345667787985,0.6908602150537635
2.5902354759523596,0.6823069403714564
2.6002363851259207,0.6871945259042033
2.610237294299482,0.6859726295210166
2.6202382034730434,0.7030791788856305
2.6302391126466045,0.6847507331378299
2.6402400218201656,0.6933040078201369
2.6502409309937267,0.6933040078201369
2.6602418401672883,0.6908602150537635
2.6702427493408494,0.6810850439882697
2.6802436585144105,0.6908602150537635
2.690244567687972,0.6859726295210166
2.700245476861533,0.6933040078201369
2.7102463860350943,0.6847507331378299
2.7202472952086554,0.6945259042033236
2.730248204382217,0.6933040078201369
2.740249113555778,0.6859726295210166
2.750250022729339,0.6823069403714564
2.7602509319029003,0.6908602150537635
2.770251841076462,0.6823069403714564
2.780252750250023,0.6933040078201369
2.790253659423584,0.6847507331378299
2.8002545685971456,0.6884164222873901
2.8102554777707067,0.6933040078201369
2.820256386944268,0.6871945259042033
2.830257296117829,0.6823069403714564
2.8402582052913905,0.6859726295210166
2.8502591144649516,0.6859726295210166
2.8602600236385127,0.6933040078201369
2.870260932812074,0.6896383186705768
2.8802618419856354,0.6933040078201369
2.8902627511591965,0.6933040078201369
2.9002636603327576,0.6908602150537635
2.910264569506319,0.6810850439882697
2.9202654786798803,0.6859726295210166
2.9302663878534414,0.6859726295210166
2.9402672970270025,0.6933040078201369
2.950268206200564,0.6896383186705768
2.960269115374125,0.6933040078201369
2.9702700245476863,0.7030791788856305
2.9802709337212474,0.6908602150537635
2.990271842894809,0.6908602150537635
3.00027275206837,0.6908602150537635
3.010273661241931,0.6871945259042033
3.0202745704154927,0.7030791788856305
3.030275479589054,0.6994134897360704
3.040276388762615,0.6945259042033236
3.050277297936176,0.6957478005865103
3.0602782071097376,0.6859726295210166
3.0702791162832987,0.6810850439882697
3.08028002545686,0.6859726295210166
3.090280934630421,0.6823069403714564
3.1002818438039825,0.6933040078201369
3.1102827529775436,0.6847507331378299
3.1202836621511048,0.6933040078201369
3.1302845713246663,0.6933040078201369
3.1402854804982274,0.6859726295210166
3.1502863896717885,0.6823069403714564
3.1602872988453496,0.6859726295210166
3.170288208018911,0.6908602150537635
3.1802891171924723,0.7128543499511242
3.1902900263660334,0.7238514173998045
3.200290935539595,0.7324046920821115
3.210291844713156,0.7360703812316716
3.220292753886717,0.7116324535679375
3.2302936630602783,0.7165200391006843
3.24029457223384,0.7116324535679375
3.250295481407401,0.6713098729227761
3.260296390580962,0.6835288367546432
3.270297299754523,0.6920821114369502
3.2802982089280848,0.6933040078201369
3.290299118101646,0.6957478005865103
3.300300027275207,0.6920821114369502
3.3103009364487685,0.6859726295210166
3.3203018456223297,0.6908602150537635
3.3303027547958908,0.6823069403714564
3.340303663969452,0.7030791788856305
3.3503045731430134,0.6896383186705768
3.3603054823165746,0.696969696969697
3.3703063914901357,0.7030791788856305
3.380307300663697,0.6957478005865103
3.3903082098372583,0.6908602150537635
3.4003091190108194,0.696969696969697
3.4103100281843806,0.6871945259042033
3.420310937357942,0.6994134897360704
3.4303118465315032,0.7030791788856305
3.4403127557050643,0.7067448680351907
3.4503136648786255,0.705522971652004
3.460314574052187,0.696969696969697
3.470315483225748,0.7018572825024438
3.4803163923993092,0.7104105571847508
3.4903173015728703,0.7128543499511242
3.500318210746432,0.7091886608015641
3.510319119919993,0.7140762463343109
3.520320029093554,0.7165200391006843
3.5303209382671157,0.7152981427174976
3.540321847440677,0.7116324535679375
3.550322756614238,0.7152981427174976
3.560323665787799,0.7116324535679375
3.5703245749613606,0.7226295210166178
3.5803254841349217,0.7189638318670577
3.590326393308483,0.7226295210166178
3.600327302482044,0.7226295210166178
3.6103282116556055,0.7079667644183774
3.6203291208291666,0.7006353861192571
3.6303300300027277,0.7079667644183774
3.6403309391762892,0.7006353861192571
3.6503318483498504,0.7030791788856305
3.6603327575234115,0.6896383186705768
3.6703336666969726,0.6945259042033236
3.680334575870534,0.696969696969697
3.6903354850440953,0.6957478005865103
3.7003363942176564,0.6908602150537635
3.7103373033912175,0.6823069403714564
3.720338212564779,0.6933040078201369
3.73033912173834,0.6896383186705768
3.7403400309119013,0.6933040078201369
3.750340940085463,0.6957478005865103
3.760341849259024,0.6920821114369502
3.770342758432585,0.6823069403714564
3.780343667606146,0.6908602150537635
3.7903445767797077,0.6859726295210166
3.800345485953269,0.6884164222873901
3.81034639512683,0.6896383186705768
3.820347304300391,0.6933040078201369
3.8303482134739526,0.6957478005865103
3.8403491226475137,0.6859726295210166
3.850350031821075,0.6871945259042033
3.8603509409946364,0.6859726295210166
3.8703518501681975,0.6859726295210166
3.8803527593417586,0.6933040078201369
3.8903536685153197,0.6920821114369502
3.9003545776888813,0.6945259042033236
3.9103554868624424,0.6957478005865103
3.9203563960360035,0.6908602150537635
3.9303573052095646,0.6859726295210166
3.940358214383126,0.6920821114369502
3.9503591235566873,0.6871945259042033
3.9603600327302484,0.6957478005865103
3.97036094190381,0.6920821114369502
3.980361851077371,0.7030791788856305
3.990362760250932,0.6957478005865103
4.000363669424494,0.6908602150537635
4.010364578598055,0.6908602150537635
4.020365487771616,0.6859726295210166
4.030366396945177,0.6933040078201369
4.040367306118738,0.6847507331378299
4.050368215292299,0.6933040078201369
4.060369124465861,0.7030791788856305
4.070370033639422,0.6908602150537635
4.0803709428129835,0.6859726295210166
4.090371851986545,0.6908602150537635
4.100372761160106,0.6859726295210166
4.110373670333667,0.6933040078201369
4.120374579507228,0.6896383186705768
4.130375488680789,0.6933040078201369
4.140376397854351,0.6933040078201369
4.150377307027912,0.6859726295210166
4.160378216201473,0.6859726295210166
4.170379125375034,0.6908602150537635
4.1803800345485955,0.6859726295210166
4.190380943722157,0.6933040078201369
4.200381852895718,0.6847507331378299
4.21038276206928,0.6933040078201369
4.220383671242841,0.6957478005865103
4.230384580416402,0.6908602150537635
4.240385489589963,0.6871945259042033
4.250386398763524,0.6859726295210166
4.260387307937085,0.6810850439882697
4.270388217110646,0.6920821114369502
4.280389126284208,0.6933040078201369
4.2903900354577695,0.7030791788856305
4.300390944631331,0.6908602150537635
4.310391853804892,0.6859726295210166
4.320392762978453,0.6957478005865103
4.330393672152014,0.6908602150537635
4.340394581325575,0.7030791788856305
4.350395490499136,0.6994134897360704
4.360396399672698,0.6945259042033236
4.370397308846259,0.6957478005865103
4.38039821801982,0.7018572825024438
4.3903991271933815,0.6859726295210166
4.400400036366943,0.6823069403714564
4.410400945540504,0.6823069403714564
4.420401854714065,0.6933040078201369
4.430402763887627,0.6871945259042033
4.440403673061188,0.6933040078201369
4.450404582234749,0.6957478005865103
4.46040549140831,0.6908602150537635
4.470406400581871,0.6823069403714564
4.480407309755432,0.6871945259042033
4.4904082189289936,0.6810850439882697
4.500409128102556,0.7030791788856305
4.510410037276117,0.7067448680351907
4.520410946449678,0.7324046920821115
4.530411855623239,0.7421798631476051
4.5404127647968,0.729960899315738
4.550413673970361,0.7250733137829912
4.560414583143922,0.7104105571847508
4.570415492317483,0.6737536656891495
4.580416401491045,0.679863147605083
4.5904173106646065,0.6945259042033236
4.600418219838168,0.7030791788856305
4.610419129011729,0.6908602150537635
4.62042003818529,0.6859726295210166
4.630420947358851,0.6957478005865103
4.640421856532412,0.6871945259042033
4.650422765705974,0.6933040078201369
4.660423674879535,0.6981915933528837
4.670424584053096,0.6945259042033236
4.680425493226657,0.6933040078201369
4.6904264024002185,0.6908602150537635
4.70042731157378,0.6920821114369502
4.710428220747341,0.696969696969697
4.720429129920903,0.7030791788856305
4.730430039094464,0.6981915933528837
4.740430948268025,0.696969696969697
4.750431857441586,0.7128543499511242
4.760432766615147,0.7006353861192571
4.770433675788708,0.6957478005865103
4.780434584962269,0.7018572825024438
4.7904354941358305,0.7006353861192571
4.8004364033093925,0.7128543499511242
4.810437312482954,0.7091886608015641
4.820438221656515,0.7128543499511242
4.830439130830076,0.7226295210166178
4.840440040003637,0.7152981427174976
4.850440949177198,0.7104105571847508
4.860441858350759,0.7165200391006843
4.870442767524321,0.7165200391006843
4.880443676697882,0.7226295210166178
4.890444585871443,0.7189638318670577
4.9004454950450045,0.7275171065493646
4.910446404218566,0.7324046920821115
4.920447313392127,0.7152981427174976
4.930448222565688,0.7104105571847508
4.94044913173925,0.7104105571847508
4.950450040912811,0.7006353861192571
4.960450950086372,0.7030791788856305
4.970451859259933,0.6994134897360704
4.980452768433494,0.6945259042033236
4.990453677607055,0.7030791788856305
5.0004545867806165,0.6908602150537635
5.010455495954178,0.6859726295210166
5.02045640512774,0.6908602150537635
5.030457314301301,0.6871945259042033
5.040458223474862,0.6933040078201369
5.050459132648423,0.6994134897360704
5.060460041821984,0.6933040078201369
5.070460950995545,0.6933040078201369
5.080461860169106,0.6908602150537635
5.090462769342668,0.6871945259042033
5.100463678516229,0.6908602150537635
5.1104645876897905,0.6859726295210166
5.120465496863352,0.6933040078201369
5.130466406036913,0.6920821114369502
5.140467315210474,0.6933040078201369
5.150468224384035,0.7030791788856305
5.160469133557597,0.6908602150537635
5.170470042731158,0.6823069403714564
5.180470951904719,0.6871945259042033
5.19047186107828,0.6823069403714564
5.200472770251841,0.6933040078201369
5.2104736794254025,0.6896383186705768
5.220474588598964,0.6957478005865103
5.230475497772526,0.6957478005865103
5.240476406946087,0.6908602150537635
5.250477316119648,0.6859726295210166
5.260478225293209,0.6908602150537635
5.27047913446677,0.6823069403714564
5.280480043640331,0.6945259042033236
5.290480952813892,0.6896383186705768
5.300481861987453,0.6933040078201369
5.310482771161015,0.6945259042033236
5.3204836803345765,0.6871945259042033
5.330484589508138,0.6823069403714564
5.340485498681699,0.6908602150537635
5.35048640785526,0.6871945259042033
5.360487317028821,0.6933040078201369
5.370488226202382,0.6920821114369502
5.380489135375944,0.6933040078201369
5.390490044549505,0.6908602150537635
5.400490953723066,0.6859726295210166
5.410491862896627,0.6957478005865103
5.4204927720701885,0.6859726295210166
5.43049368124375,0.6933040078201369
5.440494590417311,0.6896383186705768
5.450495499590873,0.6945259042033236
5.460496408764434,0.6933040078201369
5.470497317937995,0.6920821114369502
5.480498227111556,0.6859726295210166
5.490499136285117,0.6920821114369502
5.500500045458678,0.6871945259042033
5.510500954632239,0.6933040078201369
5.5205018638058005,0.6933040078201369
5.5305027729793625,0.696969696969697
5.540503682152924,0.6920821114369502
5.550504591326485,0.6859726295210166
5.560505500500046,0.6908602150537635
5.570506409673607,0.6859726295210166
5.580507318847168,0.6945259042033236
5.590508228020729,0.6981915933528837
5.600509137194291,0.696969696969697
5.610510046367852,0.6957478005865103
5.6205109555414134,0.6908602150537635
5.630511864714975,0.6871945259042033
5.640512773888536,0.6957478005865103
5.650513683062097,0.6859726295210166
5.660514592235658,0.6957478005865103
5.67051550140922,0.6994134897360704
5.680516410582781,0.7030791788856305
5.690517319756342,0.7030791788856305
5.700518228929903,0.6920821114369502
5.710519138103464,0.6920821114369502
5.7205200472770255,0.6920821114369502
5.730520956450587,0.6823069403714564
5.740521865624148,0.6933040078201369
5.75052277479771,0.6896383186705768
5.760523683971271,0.6933040078201369
5.770524593144832,0.6933040078201369
5.780525502318393,0.6908602150537635
5.790526411491954,0.6823069403714564
5.800527320665515,0.6908602150537635
5.810528229839076,0.6871945259042033
5.820529139012638,0.6933040078201369
5.8305300481861995,0.6896383186705768
5.840530957359761,0.7030791788856305
5.850531866533322,0.7152981427174976
5.860532775706883,0.729960899315738
5.870533684880444,0.729960899315738
5.880534594054005,0.729960899315738
5.890535503227567,0.7104105571847508
5.900536412401128,0.7275171065493646
5.910537321574689,0.6994134897360704
5.92053823074825,0.6835288367546432
5.9305391399218115,0.6933040078201369
5.940540049095373,0.696969696969697
5.950540958268934,0.696969696969697
5.960541867442495,0.6920821114369502
5.970542776616057,0.6957478005865103
5.980543685789618,0.6920821114369502
5.990544594963179,0.6945259042033236
6.00054550413674,0.696969696969697
6.010546413310301,0.6920821114369502
6.020547322483862,0.6920821114369502
6.0305482316574235,0.7006353861192571
6.0405491408309855,0.6908602150537635
6.050550050004547,0.7030791788856305
6.060550959178108,0.6994134897360704
6.070551868351669,0.7030791788856305
6.08055277752523,0.705522971652004
6.090553686698791,0.7018572825024438
6.100554595872352,0.696969696969697
6.110555505045914,0.705522971652004
6.120556414219475,0.7006353861192571
6.130557323393036,0.7128543499511242
6.1405582325665975,0.7091886608015641
6.150559141740159,0.7140762463343109
6.16056005091372,0.7152981427174976
6.170560960087281,0.7152981427174976
6.180561869260842,0.7104105571847508
6.190562778434404,0.7201857282502444
6.200563687607965,0.7152981427174976
6.210564596781526,0.7324046920821115
6.220565505955087,0.7189638318670577
6.230566415128648,0.7275171065493646
6.2405673243022095,0.7324046920821115
6.250568233475771,0.7250733137829912
6.260569142649333,0.7152981427174976
6.270570051822894,0.7152981427174976
6.280570960996455,0.7104105571847508
6.290571870170016,0.7128543499511242
6.300572779343577,0.7043010752688172
6.310573688517138,0.7030791788856305
6.320574597690699,0.705522971652004
6.330575506864261,0.7006353861192571
6.340576416037822,0.6957478005865103
6.3505773252113835,0.6957478005865103
6.360578234384945,0.6871945259042033
6.370579143558506,0.6957478005865103
6.380580052732067,0.6945259042033236
6.390580961905628,0.7030791788856305
6.40058187107919,0.6908602150537635
6.410582780252751,0.6908602150537635
6.420583689426312,0.6957478005865103
6.430584598599873,0.6920821114369502
6.440585507773434,0.696969696969697
6.4505864169469955,0.6994134897360704
6.460587326120557,0.6945259042033236
6.470588235294118,0.696969696969697
6.48058914446768,0.6957478005865103
6.490590053641241,0.6871945259042033
6.500590962814802,0.6957478005865103
6.510591871988363,0.6871945259042033
6.520592781161924,0.6957478005865103
6.530593690335485,0.6994134897360704
6.540594599509046,0.6957478005865103
6.550595508682608,0.7030791788856305
6.5605964178561695,0.6957478005865103
6.570597327029731,0.6871945259042033
6.580598236203292,0.6908602150537635
6.590599145376853,0.6920821114369502
6.600600054550414,0.6933040078201369
6.610600963723975,0.6920821114369502
6.620601872897537,0.696969696969697
6.630602782071098,0.7030791788856305
6.640603691244659,0.6908602150537635
6.65060460041822,0.6859726295210166
6.6606055095917815,0.6908602150537635
6.670606418765343,0.6945259042033236
6.680607327938904,0.6994134897360704
6.690608237112465,0.6933040078201369
6.700609146286027,0.7030791788856305
6.710610055459588,0.6957478005865103
6.720610964633149,0.6908602150537635
6.73061187380671,0.6920821114369502
6.740612782980271,0.6920821114369502
6.7506136921538324,0.6933040078201369
6.760614601327394,0.6981915933528837
6.770615510500956,0.7030791788856305
6.780616419674517,0.6957478005865103
6.790617328848078,0.6908602150537635
6.800618238021639,0.6920821114369502
6.8106191471952,0.6859726295210166
6.820620056368761,0.6933040078201369
6.830620965542322,0.6994134897360704
6.840621874715884,0.696969696969697
6.850622783889445,0.7030791788856305
6.8606236930630065,0.6957478005865103
6.870624602236568,0.6859726295210166
6.880625511410129,0.6859726295210166
6.89062642058369,0.6920821114369502
6.900627329757251,0.6945259042033236
6.910628238930812,0.6994134897360704
6.920629148104374,0.7030791788856305
6.930630057277935,0.7030791788856305
6.940630966451496,0.6957478005865103
6.950631875625057,0.7006353861192571
6.9606327847986185,0.6920821114369502
6.97063369397218,0.7030791788856305
6.980634603145741,0.6994134897360704
6.990635512319303,0.7030791788856305
7.000636421492864,0.7067448680351907
7.010637330666425,0.6908602150537635
7.020638239839986,0.6859726295210166
7.030639149013547,0.6908602150537635
7.040640058187108,0.6859726295210166
7.050640967360669,0.696969696969697
7.060641876534231,0.6920821114369502
7.0706427857077925,0.6933040078201369
7.080643694881354,0.6908602150537635
7.090644604054915,0.6859726295210166
7.100645513228476,0.6957478005865103
7.110646422402037,0.7006353861192571
7.120647331575598,0.7226295210166178
7.130648240749159,0.738514173998045
7.140649149922721,0.7421798631476051
7.150650059096282,0.7275171065493646
7.160650968269843,0.7152981427174976
7.1706518774434045,0.7116324535679375
7.180652786616966,0.6810850439882697
7.190653695790527,0.6810850439882697
7.200654604964088,0.6933040078201369
7.21065551413765,0.6994134897360704
7.220656423311211,0.7030791788856305
7.230657332484772,0.7030791788856305
7.240658241658333,0.6957478005865103
7.250659150831894,0.6920821114369502
7.260660060005455,0.6957478005865103
7.2706609691790165,0.6957478005865103
7.2806618783525785,0.7030791788856305
7.29066278752614,0.6994134897360704
7.300663696699701,0.7030791788856305
7.310664605873262,0.705522971652004
7.320665515046823,0.696969696969697
7.330666424220384,0.7006353861192571
7.340667333393945,0.696969696969697
7.350668242567506,0.696969696969697
7.360669151741068,0.7030791788856305
7.370670060914629,0.7018572825024438
7.3806709700881905,0.705522971652004
7.390671879261752,0.7165200391006843
7.400672788435313,0.7104105571847508
7.410673697608874,0.7104105571847508
7.420674606782435,0.7104105571847508
7.430675515955997,0.7104105571847508
7.440676425129558,0.7226295210166178
7.450677334303119,0.7091886608015641
7.46067824347668,0.7226295210166178
7.470679152650241,0.7324046920821115
7.4806800618238025,0.7201857282502444
7.490680970997364,0.7165200391006843
7.500681880170926,0.7201857282502444
7.510682789344487,0.7201857282502444
7.520683698518048,0.7324046920821115
7.530684607691609,0.7189638318670577
7.54068551686517,0.7226295210166178
7.550686426038731,0.7275171065493646
7.560687335212292,0.7116324535679375
7.570688244385853,0.7104105571847508
7.580689153559415,0.7104105571847508
7.5906900627329765,0.696969696969697
7.600690971906538,0.7030791788856305
7.610691881080099,0.6994134897360704
7.62069279025366,0.7030791788856305
7.630693699427221,0.7030791788856305
7.640694608600782,0.6920821114369502
7.650695517774344,0.6871945259042033
7.660696426947905,0.6920821114369502
7.670697336121466,0.6871945259042033
7.680698245295027,0.7030791788856305
7.6906991544685885,0.6896383186705768
7.70070006364215,0.6933040078201369
7.710700972815711,0.7030791788856305
7.720701881989273,0.696969696969697
7.730702791162834,0.6859726295210166
7.740703700336395,0.6957478005865103
7.750704609509956,0.6859726295210166
7.760705518683517,0.6957478005865103
7.770706427857078,0.6994134897360704
7.780707337030639,0.6957478005865103
7.790708246204201,0.6957478005865103
7.8007091553777625,0.6957478005865103
7.810710064551324,0.6871945259042033
7.820710973724885,0.6957478005865103
7.830711882898446,0.6920821114369502
7.840712792072007,0.7030791788856305
7.850713701245568,0.6994134897360704
7.860714610419129,0.705522971652004
7.870715519592691,0.6957478005865103
7.880716428766252,0.6920821114369502
7.8907173379398134,0.6957478005865103
7.900718247113375,0.6871945259042033
7.910719156286936,0.7030791788856305
7.920720065460497,0.6994134897360704
7.930720974634058,0.6945259042033236
7.94072188380762,0.7030791788856305
7.950722792981181,0.696969696969697
7.960723702154742,0.6871945259042033
7.970724611328303,0.6957478005865103
7.980725520501864,0.6908602150537635
7.9907264296754255,0.6933040078201369
8.000727338848987,0.6920821114369502
8.010728248022549,0.7030791788856305
8.02072915719611,0.6957478005865103
8.03073006636967,0.6957478005865103
8.040730975543232,0.6871945259042033
8.050731884716793,0.6908602150537635
8.060732793890354,0.6871945259042033
8.070733703063915,0.7030791788856305
8.080734612237476,0.6994134897360704
8.090735521411037,0.6933040078201369
8.100736430584599,0.6957478005865103
8.11073733975816,0.6908602150537635
8.120738248931723,0.6859726295210166
8.130739158105284,0.6957478005865103
8.140740067278845,0.6908602150537635
8.150740976452406,0.6957478005865103
8.160741885625967,0.6994134897360704
8.170742794799528,0.6933040078201369
8.18074370397309,0.696969696969697
8.19074461314665,0.6957478005865103
8.200745522320211,0.6859726295210166
8.210746431493773,0.6908602150537635
8.220747340667334,0.6859726295210166
8.230748249840895,0.7030791788856305
8.240749159014456,0.6994134897360704
8.250750068188017,0.6945259042033236
8.260750977361578,0.7030791788856305
8.270751886535141,0.6957478005865103
8.280752795708702,0.6920821114369502
8.290753704882263,0.6957478005865103
8.300754614055824,0.6957478005865103
8.310755523229385,0.6945259042033236
8.320756432402947,0.6994134897360704
8.330757341576508,0.6933040078201369
8.340758250750069,0.7030791788856305
8.35075915992363,0.6957478005865103
8.360760069097191,0.6859726295210166
8.370760978270752,0.6908602150537635
8.380761887444313,0.6859726295210166
8.390762796617874,0.696969696969697
8.400763705791435,0.6920821114369502
8.410764614964997,0.696969696969697
8.42076552413856,0.705522971652004
8.43076643331212,0.7079667644183774
8.440767342485682,0.7165200391006843
8.450768251659243,0.7348484848484849
8.460769160832804,0.729960899315738
8.470770070006365,0.7226295210166178
8.480770979179926,0.7189638318670577
8.490771888353487,0.7140762463343109
8.500772797527048,0.6933040078201369
8.51077370670061,0.6810850439882697
8.52077461587417,0.6871945259042033
8.530775525047732,0.7006353861192571
8.540776434221293,0.6908602150537635
8.550777343394854,0.696969696969697
8.560778252568417,0.6994134897360704
8.570779161741978,0.696969696969697
8.580780070915539,0.7030791788856305
8.5907809800891,0.696969696969697
8.600781889262661,0.6908602150537635
8.610782798436222,0.6957478005865103
8.620783707609784,0.6859726295210166
8.630784616783345,0.7030791788856305
8.640785525956906,0.6994134897360704
8.650786435130467,0.7030791788856305
8.660787344304028,0.7030791788856305
8.670788253477589,0.696969696969697
8.68078916265115,0.6871945259042033
8.690790071824711,0.7079667644183774
8.700790980998272,0.7006353861192571
8.710791890171835,0.7043010752688172
8.720792799345396,0.7091886608015641
8.730793708518958,0.7128543499511242
8.740794617692519,0.7104105571847508
8.75079552686608,0.7104105571847508
8.76079643603964,0.7104105571847508
8.770797345213202,0.7104105571847508
8.780798254386763,0.7275171065493646
8.790799163560324,0.7214076246334311
8.800800072733885,0.7275171065493646
8.810800981907446,0.7275171065493646
8.820801891081008,0.7201857282502444
8.830802800254569,0.7152981427174976
8.84080370942813,0.7201857282502444
8.85080461860169,0.7104105571847508
8.860805527775254,0.7128543499511242
8.870806436948815,0.7091886608015641
8.880807346122376,0.7067448680351907
8.890808255295937,0.7128543499511242
8.900809164469498,0.7018572825024438
8.91081007364306,0.6920821114369502
8.92081098281662,0.6957478005865103
8.930811891990182,0.696969696969697
8.940812801163743,0.6957478005865103
8.950813710337304,0.6994134897360704
8.960814619510865,0.7030791788856305
8.970815528684426,0.7030791788856305
8.980816437857987,0.6957478005865103
8.990817347031548,0.6823069403714564
9.000818256205111,0.6908602150537635
9.010819165378672,0.6908602150537635
9.020820074552233,0.696969696969697
9.030820983725794,0.6896383186705768
9.040821892899356,0.6945259042033236
9.050822802072917,0.7030791788856305
9.060823711246478,0.6957478005865103
9.070824620420039,0.6908602150537635
9.0808255295936,0.6957478005865103
9.090826438767161,0.6859726295210166
9.100827347940722,0.6933040078201369
9.110828257114283,0.6920821114369502
9.120829166287844,0.696969696969697
9.130830075461406,0.7030791788856305
9.140830984634967,0.6908602150537635
9.15083189380853,0.6908602150537635
9.16083280298209,0.696969696969697
9.170833712155652,0.6871945259042033
9.180834621329213,0.696969696969697
9.190835530502774,0.6920821114369502
9.200836439676335,0.696969696969697
9.210837348849896,0.6957478005865103
9.220838258023457,0.6908602150537635
9.230839167197018,0.6859726295210166
9.24084007637058,0.6957478005865103
9.25084098554414,0.6908602150537635
9.260841894717702,0.6945259042033236
9.270842803891263,0.6981915933528837
9.280843713064824,0.7030791788856305
9.290844622238387,0.696969696969697
9.300845531411948,0.6920821114369502
9.31084644058551,0.6859726295210166
9.32084734975907,0.6908602150537635
9.330848258932631,0.6908602150537635
9.340849168106192,0.6945259042033236
9.350850077279754,0.6981915933528837
9.360850986453315,0.6933040078201369
9.370851895626876,0.7030791788856305
9.380852804800437,0.6908602150537635
9.390853713973998,0.6859726295210166
9.40085462314756,0.6957478005865103
9.41085553232112,0.6871945259042033
9.420856441494681,0.7030791788856305
9.430857350668242,0.6994134897360704
9.440858259841805,0.6933040078201369
9.450859169015366,0.7030791788856305
9.460860078188928,0.6908602150537635
9.470860987362489,0.6908602150537635
9.48086189653605,0.6908602150537635
9.490862805709611,0.6933040078201369
9.500863714883172,0.6871945259042033
9.510864624056733,0.6945259042033236
9.520865533230294,0.7030791788856305
9.530866442403855,0.6859726295210166
9.540867351577416,0.6920821114369502
9.550868260750978,0.6957478005865103
9.560869169924539,0.6908602150537635
9.5708700790981,0.6957478005865103
9.580870988271661,0.6994134897360704
9.590871897445224,0.6957478005865103
9.600872806618785,0.7128543499511242
9.610873715792346,0.6957478005865103
9.620874624965907,0.6908602150537635
9.630875534139468,0.6957478005865103
9.64087644331303,0.6920821114369502
9.65087735248659,0.6933040078201369
9.660878261660152,0.6896383186705768
9.670879170833713,0.6933040078201369
9.680880080007274,0.6957478005865103
9.690880989180835,0.6908602150537635
9.700881898354396,0.6859726295210166
9.710882807527957,0.6871945259042033
9.720883716701518,0.6823069403714564
9.730884625875081,0.6933040078201369
9.740885535048642,0.6896383186705768
9.750886444222203,0.6933040078201369
9.760887353395765,0.705522971652004
9.770888262569326,0.7104105571847508
9.780889171742887,0.7250733137829912
9.790890080916448,0.7360703812316716
9.800890990090009,0.7250733137829912
9.81089189926357,0.7165200391006843
9.820892808437131,0.7238514173998045
9.830893717610692,0.7128543499511242
9.840894626784253,0.6884164222873901
9.850895535957815,0.6908602150537635
9.860896445131376,0.6908602150537635
9.870897354304937,0.6957478005865103
9.8808982634785,0.6957478005865103
9.89089917265206,0.6945259042033236
9.900900081825622,0.6994134897360704
9.910900990999183,0.7030791788856305
9.920901900172744,0.705522971652004
9.930902809346305,0.6957478005865103
9.940903718519866,0.6920821114369502
9.950904627693427,0.696969696969697
9.960905536866989,0.6920821114369502
9.97090644604055,0.7030791788856305
9.98090735521411,0.7043010752688172
9.990908264387672,0.7030791788856305
10.000909173561233,0.7030791788856305
10.010910082734794,0.7006353861192571
10.020910991908355,0.696969696969697
10.030911901081918,0.7006353861192571
10.04091281025548,0.7006353861192571
10.05091371942904,0.7030791788856305
10.060914628602601,0.7067448680351907
10.070915537776163,0.7067448680351907
10.080916446949724,0.7152981427174976
10.090917356123285,0.7104105571847508
10.100918265296846,0.7104105571847508
10.110919174470407,0.7152981427174976
10.120920083643968,0.7152981427174976
10.13092099281753,0.7226295210166178
10.14092190199109,0.7214076246334311
10.150922811164651,0.7226295210166178
10.160923720338213,0.7275171065493646
10.170924629511775,0.7250733137829912
10.180925538685337,0.7165200391006843
10.190926447858898,0.7201857282502444
10.200927357032459,0.7152981427174976
10.21092826620602,0.7152981427174976
10.220929175379581,0.7067448680351907
10.230930084553142,0.705522971652004
10.240930993726703,0.705522971652004
10.250931902900264,0.696969696969697
10.260932812073825,0.6957478005865103
10.270933721247387,0.6957478005865103
10.280934630420948,0.6908602150537635
10.290935539594509,0.6957478005865103
10.30093644876807,0.6920821114369502
10.310937357941631,0.7030791788856305
10.320938267115194,0.696969696969697
10.330939176288755,0.6957478005865103
10.340940085462316,0.6908602150537635
10.350940994635877,0.6957478005865103
10.360941903809438,0.6920821114369502
10.370942812983,0.6945259042033236
10.38094372215656,0.6994134897360704
10.390944631330122,0.6945259042033236
10.400945540503683,0.6945259042033236
10.410946449677244,0.6957478005865103
10.420947358850805,0.6920821114369502
10.430948268024366,0.6908602150537635
10.440949177197927,0.6859726295210166
10.450950086371488,0.696969696969697
10.460950995545051,0.6920821114369502
10.470951904718612,0.6945259042033236
10.480952813892173,0.7030791788856305
10.490953723065735,0.6957478005865103
10.500954632239296,0.6908602150537635
10.510955541412857,0.6871945259042033
10.520956450586418,0.6945259042033236
10.530957359759979,0.6994134897360704
10.54095826893354,0.6933040078201369
10.550959178107101,0.7030791788856305
10.560960087280662,0.6908602150537635
10.570960996454223,0.6859726295210166
10.580961905627785,0.6957478005865103
10.590962814801346,0.6920821114369502
10.600963723974907,0.6945259042033236
10.61096463314847,0.6896383186705768
10.62096554232203,0.6933040078201369
10.630966451495592,0.7030791788856305
10.640967360669153,0.6908602150537635
10.650968269842714,0.6871945259042033
10.660969179016275,0.6957478005865103
10.670970088189836,0.6859726295210166
10.680970997363398,0.696969696969697
10.690971906536959,0.6994134897360704
10.70097281571052,0.6933040078201369
10.71097372488408,0.7030791788856305
10.720974634057642,0.6908602150537635
10.730975543231203,0.6908602150537635
10.740976452404764,0.6920821114369502
10.750977361578325,0.6908602150537635
10.760978270751888,0.6933040078201369
10.77097917992545,0.6994134897360704
10.78098008909901,0.7030791788856305
10.790980998272572,0.6920821114369502
10.800981907446133,0.6859726295210166
10.810982816619694,0.6920821114369502
10.820983725793255,0.6823069403714564
10.830984634966816,0.6933040078201369
10.840985544140377,0.6994134897360704
10.850986453313938,0.6933040078201369
10.8609873624875,0.696969696969697
10.87098827166106,0.6920821114369502
10.880989180834622,0.6908602150537635
10.890990090008183,0.6920821114369502
10.900990999181746,0.6908602150537635
10.910991908355307,0.6945259042033236
10.920992817528868,0.6994134897360704
10.930993726702429,0.7030791788856305
10.94099463587599,0.7128543499511242
10.950995545049551,0.7006353861192571
10.960996454223112,0.6920821114369502
10.970997363396673,0.6957478005865103
10.980998272570234,0.6920821114369502
10.990999181743796,0.6957478005865103
11.001000090917357,0.6896383186705768
11.011001000090918,0.6933040078201369
11.021001909264479,0.6957478005865103
11.03100281843804,0.6908602150537635
11.041003727611601,0.6859726295210166
11.051004636785164,0.6908602150537635
11.061005545958725,0.6774193548387096
11.071006455132286,0.6920821114369502
11.081007364305847,0.6933040078201369
11.091008273479408,0.6933040078201369
11.10100918265297,0.7079667644183774
11.11101009182653,0.7104105571847508
11.121011001000092,0.7250733137829912
11.131011910173653,0.729960899315738
11.141012819347214,0.7324046920821115
11.151013728520775,0.7189638318670577
11.161014637694336,0.7226295210166178
11.171015546867897,0.705522971652004
11.181016456041458,0.6774193548387096
11.19101736521502,0.6823069403714564
11.201018274388582,0.696969696969697
11.211019183562144,0.6908602150537635
11.221020092735705,0.6945259042033236
11.231021001909266,0.6994134897360704
11.241021911082827,0.6945259042033236
11.251022820256388,0.7030791788856305
11.26102372942995,0.6957478005865103
11.27102463860351,0.6871945259042033
11.281025547777071,0.6957478005865103
11.291026456950632,0.6908602150537635
11.301027366124194,0.7030791788856305
11.311028275297755,0.6994134897360704
11.321029184471316,0.7030791788856305
11.331030093644877,0.7030791788856305
11.34103100281844,0.7006353861192571
11.351031911992001,0.6957478005865103
11.361032821165562,0.7018572825024438
11.371033730339123,0.7006353861192571
11.381034639512684,0.7128543499511242
11.391035548686245,0.7018572825024438
11.401036457859806,0.7043010752688172
11.411037367033368,0.7152981427174976
11.421038276206929,0.7104105571847508
11.43103918538049,0.7104105571847508
11.441040094554051,0.7152981427174976
11.451041003727612,0.7104105571847508
11.461041912901173,0.7226295210166178
11.471042822074734,0.7189638318670577
11.481043731248295,0.7275171065493646
11.491044640421858,0.7275171065493646
11.50104554959542,0.7250733137829912
11.51104645876898,0.7152981427174976
11.521047367942542,0.7201857282502444
11.531048277116103,0.7201857282502444
11.541049186289664,0.7165200391006843
11.551050095463225,0.7091886608015641
11.561051004636786,0.7140762463343109
11.571051913810347,0.7128543499511242
11.581052822983908,0.7018572825024438
11.59105373215747,0.6957478005865103
11.60105464133103,0.6957478005865103
11.611055550504592,0.6908602150537635
11.621056459678153,0.696969696969697
11.631057368851716,0.6994134897360704
11.641058278025277,0.6933040078201369
11.651059187198838,0.6945259042033236
11.661060096372399,0.6957478005865103
11.67106100554596,0.6871945259042033
11.681061914719521,0.6957478005865103
11.691062823893082,0.6908602150537635
11.701063733066643,0.6945259042033236
11.711064642240204,0.6920821114369502
11.721065551413766,0.6933040078201369
11.731066460587327,0.696969696969697
11.741067369760888,0.6908602150537635
11.751068278934449,0.6908602150537635
11.76106918810801,0.6920821114369502
11.771070097281571,0.6871945259042033
11.781071006455134,0.696969696969697
11.791071915628695,0.6945259042033236
11.801072824802256,0.696969696969697
11.811073733975817,0.6920821114369502
11.821074643149379,0.6908602150537635
11.83107555232294,0.6908602150537635
11.8410764614965,0.6859726295210166
11.851077370670062,0.7030791788856305
11.861078279843623,0.6994134897360704
11.871079189017184,0.6957478005865103
11.881080098190745,0.6957478005865103
11.891081007364306,0.6957478005865103
11.901081916537867,0.6871945259042033
11.911082825711429,0.6908602150537635
11.92108373488499,0.6957478005865103
11.931084644058553,0.6981915933528837
11.941085553232114,0.6957478005865103
11.951086462405675,0.7030791788856305
11.961087371579236,0.6908602150537635
11.971088280752797,0.6908602150537635
11.981089189926358,0.6908602150537635
11.99109009909992,0.6871945259042033
12.00109100827348,0.6933040078201369
12.011091917447041,0.6896383186705768
12.021092826620603,0.6945259042033236
12.031093735794164,0.6933040078201369
12.041094644967725,0.6957478005865103
12.051095554141286,0.6871945259042033
12.061096463314847,0.6908602150537635
12.07109737248841,0.6908602150537635
12.081098281661971,0.6945259042033236
12.091099190835532,0.6896383186705768
12.101100100009093,0.6933040078201369
12.111101009182654,0.696969696969697
12.121101918356215,0.6908602150537635
12.131102827529777,0.6871945259042033
12.141103736703338,0.6908602150537635
12.151104645876899,0.6871945259042033
12.16110555505046,0.6933040078201369
12.171106464224021,0.6981915933528837
12.181107373397582,0.6933040078201369
12.191108282571143,0.696969696969697
12.201109191744704,0.6908602150537635
12.211110100918265,0.6859726295210166
12.221111010091828,0.6920821114369502
12.23111191926539,0.6908602150537635
12.24111282843895,0.6957478005865103
12.251113737612512,0.6994134897360704
12.261114646786073,0.7030791788856305
12.271115555959634,0.7030791788856305
12.281116465133195,0.7006353861192571
12.291117374306756,0.696969696969697
12.301118283480317,0.6957478005865103
12.311119192653878,0.6920821114369502
12.32112010182744,0.7030791788856305
12.331121011001,0.6920821114369502
12.341121920174562,0.6933040078201369
12.351122829348123,0.6933040078201369
12.361123738521684,0.6823069403714564
12.371124647695247,0.6957478005865103
12.381125556868808,0.6871945259042033
12.391126466042369,0.696969696969697
12.40112737521593,0.6896383186705768
12.411128284389491,0.6957478005865103
12.421129193563052,0.7030791788856305
12.431130102736613,0.7006353861192571
12.441131011910175,0.7006353861192571
12.451131921083736,0.729960899315738
12.461132830257297,0.7262952101661779
12.471133739430858,0.7360703812316716
12.481134648604419,0.7189638318670577
12.49113555777798,0.7226295210166178
12.501136466951541,0.6761974584555229
12.511137376125104,0.6810850439882697
12.521138285298665,0.7006353861192571
12.531139194472226,0.6920821114369502
12.541140103645787,0.6945259042033236
12.551141012819349,0.6994134897360704
12.56114192199291,0.7030791788856305
12.57114283116647,0.7030791788856305
12.581143740340032,0.6957478005865103
12.591144649513593,0.6920821114369502
12.601145558687154,0.6957478005865103
12.611146467860715,0.6957478005865103
12.621147377034276,0.7030791788856305
12.631148286207837,0.6994134897360704
12.641149195381399,0.7030791788856305
12.65115010455496,0.705522971652004
12.661151013728523,0.7006353861192571
12.671151922902084,0.7006353861192571
12.681152832075645,0.7006353861192571
12.691153741249206,0.6920821114369502
12.701154650422767,0.7067448680351907
12.711155559596328,0.7043010752688172
12.72115646876989,0.7128543499511242
12.73115737794345,0.7128543499511242
12.741158287117011,0.7104105571847508
12.751159196290573,0.7104105571847508
12.761160105464134,0.7165200391006843
12.771161014637695,0.7104105571847508
12.781161923811256,0.7226295210166178
12.791162832984817,0.7189638318670577
12.80116374215838,0.7275171065493646
12.811164651331941,0.7324046920821115
12.821165560505502,0.7250733137829912
12.831166469679063,0.7201857282502444
12.841167378852624,0.729960899315738
12.851168288026185,0.7116324535679375
12.861169197199747,0.7226295210166178
12.871170106373308,0.717741935483871
12.881171015546869,0.7165200391006843
12.89117192472043,0.7152981427174976
12.901172833893991,0.7104105571847508
12.911173743067552,0.696969696969697
12.921174652241113,0.7006353861192571
12.931175561414674,0.6920821114369502
12.941176470588236,0.7030791788856305
12.951177379761798,0.6994134897360704
12.96117828893536,0.7030791788856305
12.97117919810892,0.7030791788856305
12.981180107282482,0.6957478005865103
12.991181016456043,0.6908602150537635
13.001181925629604,0.6908602150537635
13.011182834803165,0.6871945259042033
13.021183743976726,0.696969696969697
13.031184653150287,0.6994134897360704
13.041185562323848,0.6945259042033236
13.05118647149741,0.7030791788856305
13.06118738067097,0.6859726295210166
13.071188289844532,0.6957478005865103
13.081189199018093,0.6920821114369502
13.091190108191654,0.6920821114369502
13.101191017365217,0.696969696969697
13.111191926538778,0.6994134897360704
13.121192835712339,0.6957478005865103
13.1311937448859,0.7030791788856305
13.141194654059461,0.6957478005865103
13.151195563233022,0.6908602150537635
13.161196472406584,0.696969696969697
13.171197381580145,0.6920821114369502
13.181198290753706,0.6945259042033236
13.191199199927267,0.6896383186705768
13.201200109100828,0.7030791788856305
13.211201018274389,0.6957478005865103
13.22120192744795,0.6957478005865103
13.231202836621511,0.6871945259042033
13.241203745795074,0.696969696969697
13.251204654968635,0.6957478005865103
13.261205564142196,0.6945259042033236
13.271206473315758,0.6994134897360704
13.281207382489319,0.696969696969697
13.29120829166288,0.7030791788856305
13.30120920083644,0.6957478005865103
13.311210110010002,0.6957478005865103
13.321211019183563,0.6920821114369502
13.331211928357124,0.6908602150537635
13.341212837530685,0.6945259042033236
13.351213746704246,0.6994134897360704
13.361214655877808,0.696969696969697
13.371215565051369,0.696969696969697
13.38121647422493,0.6957478005865103
13.391217383398493,0.6908602150537635
13.401218292572054,0.7006353861192571
13.411219201745615,0.6859726295210166
13.421220110919176,0.7030791788856305
13.431221020092737,0.6994134897360704
13.441221929266298,0.696969696969697
13.45122283843986,0.7030791788856305
13.46122374761342,0.6957478005865103
13.471224656786982,0.6908602150537635
13.481225565960543,0.6908602150537635
13.491226475134104,0.6871945259042033
13.501227384307665,0.6933040078201369
13.511228293481226,0.6994134897360704
13.521229202654787,0.696969696969697
13.531230111828348,0.696969696969697
13.541231021001911,0.6957478005865103
13.551231930175472,0.6957478005865103
13.561232839349033,0.696969696969697
13.571233748522594,0.6957478005865103
13.581234657696156,0.7030791788856305
13.591235566869717,0.6994134897360704
13.601236476043278,0.7030791788856305
13.611237385216839,0.7030791788856305
13.6212382943904,0.696969696969697
13.631239203563961,0.6859726295210166
13.641240112737522,0.6957478005865103
13.651241021911083,0.6908602150537635
13.661241931084644,0.6933040078201369
13.671242840258206,0.6981915933528837
13.681243749431768,0.696969696969697
13.69124465860533,0.6957478005865103
13.70124556777889,0.6957478005865103
13.711246476952452,0.6859726295210166
13.721247386126013,0.6957478005865103
13.731248295299574,0.6908602150537635
13.741249204473135,0.7128543499511242
13.751250113646696,0.7262952101661779
13.761251022820257,0.7421798631476051
13.771251931993818,0.7421798631476051
13.78125284116738,0.7250733137829912
13.79125375034094,0.7104105571847508
13.801254659514502,0.7201857282502444
13.811255568688063,0.6859726295210166
13.821256477861624,0.6835288367546432
13.831257387035187,0.6920821114369502
13.841258296208748,0.6945259042033236
13.85125920538231,0.7030791788856305
13.86126011455587,0.7006353861192571
13.871261023729431,0.6957478005865103
13.881261932902992,0.6957478005865103
13.891262842076554,0.6957478005865103
13.901263751250115,0.7030791788856305
13.911264660423676,0.7018572825024438
13.921265569597237,0.7030791788856305
13.931266478770798,0.705522971652004
13.94126738794436,0.7006353861192571
13.95126829711792,0.7006353861192571
13.961269206291481,0.7079667644183774
13.971270115465042,0.6920821114369502
13.981271024638605,0.7128543499511242
13.991271933812166,0.7043010752688172
14.001272842985728,0.705522971652004
14.011273752159289,0.7152981427174976
14.02127466133285,0.7104105571847508
14.031275570506411,0.7006353861192571
14.041276479679972,0.7104105571847508
14.051277388853533,0.7018572825024438
14.061278298027094,0.7128543499511242
14.071279207200655,0.7189638318670577
14.081280116374217,0.7226295210166178
14.091281025547778,0.7275171065493646
14.101281934721339,0.7201857282502444
14.1112828438949,0.7152981427174976
14.121283753068463,0.729960899315738
14.131284662242024,0.7201857282502444
14.141285571415585,0.7324046920821115
14.151286480589146,0.7262952101661779
14.161287389762707,0.7275171065493646
14.171288298936268,0.7324046920821115
14.18128920810983,0.7152981427174976
14.19129011728339,0.7104105571847508
14.201291026456952,0.7104105571847508
14.211291935630513,0.7079667644183774
14.221292844804074,0.7030791788856305
14.231293753977635,0.7043010752688172
14.241294663151196,0.7030791788856305
14.251295572324757,0.7006353861192571
14.261296481498318,0.6920821114369502
14.271297390671881,0.6957478005865103
14.281298299845442,0.6920821114369502
14.291299209019003,0.7030791788856305
14.301300118192565,0.6994134897360704
14.311301027366126,0.7030791788856305
14.321301936539687,0.7030791788856305
14.331302845713248,0.6957478005865103
14.341303754886809,0.6908602150537635
14.35130466406037,0.6920821114369502
14.361305573233931,0.6859726295210166
14.371306482407492,0.7030791788856305
14.381307391581053,0.7043010752688172
14.391308300754615,0.6933040078201369
14.401309209928176,0.7030791788856305
14.411310119101739,0.7006353861192571
14.4213110282753,0.6908602150537635
14.43131193744886,0.696969696969697
14.441312846622422,0.6957478005865103
14.451313755795983,0.7030791788856305
14.461314664969544,0.6994134897360704
14.471315574143105,0.7030791788856305
14.481316483316666,0.705522971652004
14.491317392490227,0.696969696969697
14.501318301663789,0.6908602150537635
14.51131921083735,0.6957478005865103
14.52132012001091,0.6908602150537635
14.531321029184472,0.7030791788856305
14.541321938358033,0.6994134897360704
14.551322847531594,0.7030791788856305
14.561323756705157,0.7030791788856305
14.571324665878718,0.6920821114369502
14.58132557505228,0.6920821114369502
14.59132648422584,0.6957478005865103
14.601327393399401,0.6908602150537635
14.611328302572963,0.696969696969697
14.621329211746524,0.6994134897360704
14.631330120920085,0.696969696969697
14.641331030093646,0.7030791788856305
14.651331939267207,0.7006353861192571
14.661332848440768,0.6908602150537635
14.67133375761433,0.6957478005865103
14.68133466678789,0.6908602150537635
14.691335575961451,0.696969696969697
14.701336485135013,0.7018572825024438
14.711337394308575,0.7030791788856305
14.721338303482137,0.7030791788856305
14.731339212655698,0.6957478005865103
14.741340121829259,0.6908602150537635
14.75134103100282,0.6957478005865103
14.761341940176381,0.6920821114369502
14.771342849349942,0.7030791788856305
14.781343758523503,0.6994134897360704
14.791344667697064,0.696969696969697
14.801345576870625,0.7030791788856305
14.811346486044187,0.6957478005865103
14.821347395217748,0.6908602150537635
14.831348304391309,0.6957478005865103
14.84134921356487,0.6920821114369502
14.851350122738433,0.7030791788856305
14.861351031911994,0.7043010752688172
14.871351941085555,0.7030791788856305
14.881352850259116,0.7128543499511242
14.891353759432677,0.7006353861192571
14.901354668606238,0.6957478005865103
14.9113555777798,0.7018572825024438
14.92135648695336,0.7006353861192571
14.931357396126922,0.696969696969697
14.941358305300483,0.6994134897360704
14.951359214474044,0.6933040078201369
14.961360123647605,0.6957478005865103
14.971361032821166,0.6920821114369502
14.981361941994727,0.6957478005865103
14.991362851168288,0.6920821114369502
15.001363760341851,0.6908602150537635
15.011364669515412,0.6957478005865103
15.021365578688973,0.6994134897360704
15.031366487862535,0.6957478005865103
15.041367397036096,0.7067448680351907
15.051368306209657,0.7201857282502444
15.061369215383218,0.7262952101661779
15.071370124556779,0.7397360703812317
15.08137103373034,0.7214076246334311
15.091371942903901,0.7226295210166178
15.101372852077462,0.7189638318670577
15.111373761251023,0.7030791788856305
15.121374670424585,0.6933040078201369
15.131375579598146,0.6908602150537635
15.141376488771707,0.6957478005865103
15.15137739794527,0.7006353861192571
15.16137830711883,0.6957478005865103
15.171379216292392,0.6957478005865103
15.181380125465953,0.6994134897360704
15.191381034639514,0.7030791788856305
15.201381943813075,0.705522971652004
15.211382852986636,0.696969696969697
15.221383762160198,0.696969696969697
15.231384671333759,0.7006353861192571
15.24138558050732,0.7043010752688172
15.25138648968088,0.7043010752688172
15.261387398854442,0.7030791788856305
15.271388308028003,0.7128543499511242
15.281389217201564,0.7079667644183774
15.291390126375127,0.7018572825024438
15.301391035548688,0.7104105571847508
15.31139194472225,0.7018572825024438
15.32139285389581,0.7128543499511242
15.331393763069372,0.7091886608015641
15.341394672242933,0.7128543499511242
15.351395581416494,0.7226295210166178
15.361396490590055,0.7201857282502444
15.371397399763616,0.7201857282502444
15.381398308937177,0.7152981427174976
15.391399218110738,0.7275171065493646
15.4014001272843,0.7189638318670577
15.41140103645786,0.7324046920821115
15.421401945631422,0.7324046920821115
15.431402854804983,0.7250733137829912
15.441403763978546,0.7201857282502444
15.451404673152107,0.7250733137829912
15.461405582325668,0.7116324535679375
15.471406491499229,0.7226295210166178
15.48140740067279,0.7091886608015641
15.491408309846351,0.7067448680351907
15.501409219019912,0.7018572825024438
15.511410128193473,0.6920821114369502
15.521411037367034,0.7006353861192571
15.531411946540596,0.6957478005865103
15.541412855714157,0.7030791788856305
15.551413764887718,0.6981915933528837
15.561414674061279,0.7030791788856305
15.57141558323484,0.7030791788856305
15.581416492408403,0.6908602150537635
15.591417401581964,0.6920821114369502
15.601418310755525,0.6957478005865103
15.611419219929086,0.6908602150537635
15.621420129102647,0.7030791788856305
15.631421038276208,0.6994134897360704
15.64142194744977,0.7030791788856305
15.65142285662333,0.7030791788856305
15.661423765796892,0.7006353861192571
15.671424674970453,0.6920821114369502
15.681425584144014,0.6957478005865103
15.691426493317575,0.6859726295210166
15.701427402491136,0.696969696969697
15.711428311664697,0.6994134897360704
15.721429220838258,0.7030791788856305
15.731430130011821,0.7030791788856305
15.741431039185382,0.696969696969697
15.751431948358944,0.6908602150537635
15.761432857532505,0.6920821114369502
15.771433766706066,0.6908602150537635
15.781434675879627,0.6994134897360704
15.791435585053188,0.7030791788856305
15.80143649422675,0.7030791788856305
15.81143740340031,0.696969696969697
15.821438312573871,0.6908602150537635
15.831439221747432,0.6957478005865103
15.841440130920994,0.6957478005865103
15.851441040094555,0.7030791788856305
15.861441949268116,0.6994134897360704
15.871442858441677,0.7030791788856305
15.88144376761524,0.7030791788856305
15.891444676788801,0.7079667644183774
15.901445585962362,0.6908602150537635
15.911446495135923,0.7006353861192571
15.921447404309484,0.6920821114369502
15.931448313483045,0.7030791788856305
15.941449222656606,0.6981915933528837
15.951450131830168,0.696969696969697
15.961451041003729,0.7030791788856305
15.97145195017729,0.6908602150537635
15.981452859350851,0.6908602150537635
15.991453768524412,0.6908602150537635
16.001454677697975,0.6871945259042033
16.011455586871534,0.7030791788856305
16.021456496045097,0.6981915933528837
16.031457405218656,0.6957478005865103
16.04145831439222,0.705522971652004
16.05145922356578,0.6908602150537635
16.06146013273934,0.6920821114369502
16.0714610419129,0.6957478005865103
16.081461951086464,0.6908602150537635
16.091462860260023,0.6957478005865103
16.101463769433586,0.6994134897360704
16.11146467860715,0.7030791788856305
16.12146558778071,0.7030791788856305
16.13146649695427,0.696969696969697
16.14146740612783,0.6920821114369502
16.151468315301393,0.696969696969697
16.161469224474953,0.6908602150537635
16.171470133648516,0.7030791788856305
16.181471042822075,0.7018572825024438
16.191471951995638,0.7030791788856305
16.201472861169197,0.705522971652004
16.21147377034276,0.7006353861192571
16.22147467951632,0.6920821114369502
16.231475588689882,0.7006353861192571
16.241476497863445,0.6871945259042033
16.251477407037004,0.6933040078201369
16.261478316210567,0.6981915933528837
16.271479225384127,0.7030791788856305
16.28148013455769,0.6957478005865103
16.29148104373125,0.696969696969697
16.301481952904812,0.6859726295210166
16.31148286207837,0.6908602150537635
16.321483771251934,0.6908602150537635
16.331484680425493,0.696969696969697
16.341485589599056,0.6994134897360704
16.351486498772616,0.7128543499511242
16.36148740794618,0.7275171065493646
16.371488317119738,0.7348484848484849
16.3814892262933,0.7348484848484849
16.391490135466864,0.7262952101661779
16.401491044640423,0.7201857282502444
16.411491953813986,0.7324046920821115
16.421492862987545,0.6896383186705768
16.431493772161108,0.6933040078201369
16.441494681334667,0.705522971652004
16.45149559050823,0.696969696969697
16.46149649968179,0.6957478005865103
16.471497408855353,0.7006353861192571
16.481498318028912,0.696969696969697
16.491499227202475,0.7030791788856305
16.501500136376034,0.7030791788856305
16.511501045549597,0.705522971652004
16.521501954723156,0.6957478005865103
16.53150286389672,0.6920821114369502
16.541503773070282,0.7006353861192571
16.55150468224384,0.6957478005865103
16.561505591417404,0.7030791788856305
16.571506500590964,0.7018572825024438
16.581507409764527,0.705522971652004
16.591508318938086,0.705522971652004
16.60150922811165,0.7006353861192571
16.611510137285208,0.7018572825024438
16.62151104645877,0.7104105571847508
16.63151195563233,0.7104105571847508
16.641512864805893,0.7128543499511242
16.651513773979453,0.7116324535679375
16.661514683153015,0.7226295210166178
16.671515592326575,0.7226295210166178
16.681516501500138,0.7201857282502444
16.6915174106737,0.7152981427174976
16.70151831984726,0.7152981427174976
16.711519229020823,0.7152981427174976
16.721520138194382,0.7324046920821115
16.731521047367945,0.7238514173998045
16.741521956541504,0.7324046920821115
16.751522865715067,0.7324046920821115
16.761523774888627,0.7250733137829912
16.77152468406219,0.7165200391006843
16.78152559323575,0.7201857282502444
16.79152650240931,0.7165200391006843
16.80152741158287,0.7140762463343109
16.811528320756434,0.7043010752688172
16.821529229929993,0.7140762463343109
16.831530139103556,0.7030791788856305
16.84153104827712,0.7006353861192571
16.85153195745068,0.6957478005865103
16.86153286662424,0.7006353861192571
16.8715337757978,0.6920821114369502
16.881534684971363,0.696969696969697
16.891535594144923,0.6994134897360704
16.901536503318486,0.7030791788856305
16.911537412492045,0.7128543499511242
16.921538321665608,0.6957478005865103
16.931539230839167,0.6957478005865103
16.94154014001273,0.7006353861192571
16.95154104918629,0.6957478005865103
16.961541958359852,0.7030791788856305
16.971542867533415,0.6994134897360704
16.981543776706975,0.7030791788856305
16.991544685880537,0.7030791788856305
17.001545595054097,0.6957478005865103
17.01154650422766,0.6908602150537635
17.02154741340122,0.6957478005865103
17.031548322574782,0.6957478005865103
17.04154923174834,0.7030791788856305
17.051550140921904,0.6994134897360704
17.061551050095463,0.7030791788856305
17.071551959269026,0.7128543499511242
17.081552868442586,0.6957478005865103
17.09155377761615,0.6957478005865103
17.101554686789708,0.6871945259042033
17.11155559596327,0.696969696969697
17.121556505136834,0.6994134897360704
17.131557414310393,0.7030791788856305
17.141558323483956,0.7030791788856305
17.151559232657515,0.6957478005865103
17.161560141831078,0.6920821114369502
17.171561051004637,0.6957478005865103
17.1815619601782,0.6957478005865103
17.19156286935176,0.7030791788856305
17.201563778525323,0.6981915933528837
17.211564687698882,0.7030791788856305
17.221565596872445,0.7030791788856305
17.231566506046004,0.696969696969697
17.241567415219567,0.696969696969697
17.251568324393126,0.6957478005865103
17.26156923356669,0.6908602150537635
17.271570142740252,0.7030791788856305
17.28157105191381,0.6994134897360704
17.291571961087374,0.696969696969697
17.301572870260934,0.7043010752688172
17.311573779434497,0.6908602150537635
17.321574688608056,0.6920821114369502
17.33157559778162,0.6957478005865103
17.341576506955178,0.6957478005865103
17.35157741612874,0.6945259042033236
17.3615783253023,0.6994134897360704
17.371579234475863,0.7030791788856305
17.381580143649423,0.7030791788856305
17.391581052822985,0.696969696969697
17.401581961996545,0.6908602150537635
17.411582871170108,0.7079667644183774
17.42158378034367,0.6908602150537635
17.43158468951723,0.7030791788856305
17.441585598690793,0.6994134897360704
17.451586507864352,0.7030791788856305
17.461587417037915,0.705522971652004
17.471588326211474,0.6957478005865103
17.481589235385037,0.6908602150537635
17.491590144558597,0.7006353861192571
17.50159105373216,0.6957478005865103
17.51159196290572,0.696969696969697
17.52159287207928,0.7067448680351907
17.53159378125284,0.7030791788856305
17.541594690426404,0.7043010752688172
17.551595599599963,0.7079667644183774
17.561596508773526,0.696969696969697
17.57159741794709,0.7006353861192571
17.58159832712065,0.6908602150537635
17.59159923629421,0.6945259042033236
17.60160014546777,0.6920821114369502
17.611601054641334,0.7030791788856305
17.621601963814893,0.7030791788856305
17.631602872988456,0.6957478005865103
17.641603782162015,0.6908602150537635
17.651604691335578,0.6908602150537635
17.661605600509137,0.6871945259042033
17.6716065096827,0.6957478005865103
17.68160741885626,0.6994134897360704
17.691608328029822,0.7030791788856305
17.70160923720338,0.7275171065493646
17.711610146376945,0.7348484848484849
17.721611055550508,0.729960899315738
17.731611964724067,0.7311827956989247
17.74161287389763,0.7201857282502444
17.75161378307119,0.7324046920821115
17.761614692244752,0.7043010752688172
17.77161560141831,0.6884164222873901
17.781616510591874,0.7030791788856305
17.791617419765434,0.7006353861192571
17.801618328938996,0.6957478005865103
17.811619238112556,0.6957478005865103
17.82162014728612,0.6920821114369502
17.831621056459678,0.7030791788856305
17.84162196563324,0.6994134897360704
17.851622874806804,0.7030791788856305
17.861623783980363,0.7128543499511242
17.871624693153926,0.7018572825024438
17.881625602327485,0.6908602150537635
17.891626511501048,0.7079667644183774
17.901627420674608,0.7006353861192571
17.91162832984817,0.7067448680351907
17.92162923902173,0.7043010752688172
17.931630148195293,0.7067448680351907
17.941631057368852,0.7128543499511242
17.951631966542415,0.7079667644183774
17.961632875715974,0.7104105571847508
17.971633784889537,0.7079667644183774
17.981634694063096,0.7152981427174976
17.99163560323666,0.7091886608015641
18.001636512410222,0.7128543499511242
18.01163742158378,0.7275171065493646
18.021638330757344,0.7152981427174976
18.031639239930904,0.7116324535679375
18.041640149104467,0.7201857282502444
18.051641058278026,0.7152981427174976
18.06164196745159,0.7275171065493646
18.07164287662515,0.7238514173998045
18.08164378579871,0.7324046920821115
18.09164469497227,0.7324046920821115
18.101645604145833,0.7250733137829912
18.111646513319393,0.7201857282502444
18.121647422492956,0.7201857282502444
18.131648331666515,0.7165200391006843
18.141649240840078,0.7067448680351907
18.15165015001364,0.7128543499511242
18.1616510591872,0.7128543499511242
18.171651968360763,0.696969696969697
18.181652877534322,0.7006353861192571
18.191653786707885,0.696969696969697
18.201654695881444,0.7006353861192571
18.211655605055007,0.696969696969697
18.221656514228567,0.6994134897360704
18.23165742340213,0.7030791788856305
18.24165833257569,0.7030791788856305
18.251659241749252,0.6957478005865103
18.26166015092281,0.6908602150537635
18.271661060096374,0.6957478005865103
18.281661969269933,0.6957478005865103
18.291662878443496,0.7030791788856305
18.30166378761706,0.6920821114369502
18.31166469679062,0.7030791788856305
18.32166560596418,0.7030791788856305
18.33166651513774,0.696969696969697
18.341667424311304,0.6957478005865103
18.351668333484863,0.6957478005865103
18.361669242658426,0.6920821114369502
18.371670151831985,0.696969696969697
18.381671061005548,0.7018572825024438
18.391671970179107,0.7030791788856305
18.40167287935267,0.7128543499511242
18.41167378852623,0.6957478005865103
18.421674697699792,0.6920821114369502
18.431675606873352,0.7018572825024438
18.441676516046915,0.7006353861192571
18.451677425220478,0.696969696969697
18.461678334394037,0.6994134897360704
18.4716792435676,0.7030791788856305
18.48168015274116,0.7030791788856305
18.491681061914722,0.696969696969697
18.50168197108828,0.6908602150537635
18.511682880261844,0.696969696969697
18.521683789435404,0.6920821114369502
18.531684698608966,0.7030791788856305
18.541685607782526,0.696969696969697
18.55168651695609,0.7030791788856305
18.561687426129648,0.696969696969697
18.57168833530321,0.6871945259042033
18.581689244476774,0.6957478005865103
18.591690153650333,0.6871945259042033
18.601691062823896,0.696969696969697
18.611691971997455,0.6994134897360704
18.62169288117102,0.6957478005865103
18.631693790344578,0.7030791788856305
18.64169469951814,0.6957478005865103
18.6516956086917,0.6908602150537635
18.661696517865263,0.6957478005865103
18.671697427038822,0.7030791788856305
18.681698336212385,0.6994134897360704
18.691699245385944,0.696969696969697
18.701700154559507,0.7030791788856305
18.711701063733067,0.6908602150537635
18.72170197290663,0.6957478005865103
18.731702882080192,0.6920821114369502
18.74170379125375,0.6908602150537635
18.751704700427315,0.6933040078201369
18.761705609600874,0.6994134897360704
18.771706518774437,0.6957478005865103
18.781707427947996,0.7030791788856305
18.79170833712156,0.6957478005865103
18.80170924629512,0.6908602150537635
18.81171015546868,0.6957478005865103
18.82171106464224,0.6920821114369502
18.831711973815803,0.7030791788856305
18.841712882989363,0.6994134897360704
18.851713792162926,0.7030791788856305
18.861714701336485,0.7067448680351907
18.871715610510048,0.7018572825024438
18.88171651968361,0.7006353861192571
18.89171742885717,0.7006353861192571
18.901718338030733,0.7006353861192571
18.911719247204292,0.7030791788856305
18.921720156377855,0.6994134897360704
18.931721065551415,0.6945259042033236
18.941721974724977,0.7030791788856305
18.951722883898537,0.6957478005865103
18.9617237930721,0.6859726295210166
18.97172470224566,0.6859726295210166
18.981725611419222,0.696969696969697
18.99172652059278,0.6994134897360704
19.001727429766344,0.6957478005865103
19.011728338939903,0.7030791788856305
19.021729248113466,0.696969696969697
19.03173015728703,0.7165200391006843
19.04173106646059,0.7311827956989247
19.05173197563415,0.7397360703812317
19.06173288480771,0.7360703812316716
19.071733793981274,0.7189638318670577
19.081734703154833,0.7275171065493646
19.091735612328396,0.7128543499511242
19.101736521501955,0.6810850439882697
19.111737430675518,0.6908602150537635
19.121738339849077,0.7006353861192571
19.13173924902264,0.6957478005865103
19.1417401581962,0.7030791788856305
19.151741067369763,0.6994134897360704
19.161741976543322,0.7030791788856305
19.171742885716885,0.705522971652004
19.181743794890448,0.696969696969697
19.191744704064007,0.6957478005865103
19.20174561323757,0.6957478005865103
19.21174652241113,0.696969696969697
19.221747431584692,0.7043010752688172
19.23174834075825,0.6994134897360704
19.241749249931814,0.705522971652004
19.251750159105374,0.705522971652004
19.261751068278937,0.7018572825024438
19.271751977452496,0.7018572825024438
19.28175288662606,0.7104105571847508
19.291753795799618,0.7006353861192571
19.30175470497318,0.7128543499511242
19.311755614146744,0.7043010752688172
19.321756523320303,0.7128543499511242
19.331757432493866,0.7152981427174976
19.341758341667425,0.7116324535679375
19.35175925084099,0.7104105571847508
19.361760160014548,0.7152981427174976
19.37176106918811,0.7165200391006843
19.38176197836167,0.7275171065493646
19.391762887535233,0.7214076246334311
19.401763796708792,0.7324046920821115
19.411764705882355,0.7324046920821115
19.421765615055914,0.7250733137829912
19.431766524229477,0.7250733137829912
19.441767433403037,0.7250733137829912
19.4517683425766,0.7250733137829912
19.461769251750162,0.7226295210166178
19.47177016092372,0.7189638318670577
19.481771070097285,0.7165200391006843
19.491771979270844,0.7165200391006843
19.501772888444407,0.7104105571847508
19.511773797617966,0.6957478005865103
19.52177470679153,0.7018572825024438
19.53177561596509,0.696969696969697
19.54177652513865,0.7030791788856305
19.55177743431221,0.696969696969697
19.561778343485773,0.7030791788856305
19.571779252659333,0.6957478005865103
19.581780161832896,0.6957478005865103
19.591781071006455,0.6957478005865103
19.601781980180018,0.6908602150537635
19.61178288935358,0.7030791788856305
19.62178379852714,0.6981915933528837
19.631784707700703,0.6957478005865103
19.641785616874262,0.7030791788856305
19.651786526047825,0.6957478005865103
19.661787435221385,0.696969696969697
19.671788344394948,0.6908602150537635
19.681789253568507,0.6920821114369502
19.69179016274207,0.696969696969697
19.70179107191563,0.6994134897360704
19.711791981089192,0.7030791788856305
19.72179289026275,0.705522971652004
19.731793799436314,0.6957478005865103
19.741794708609874,0.6920821114369502
19.751795617783436,0.6957478005865103
19.761796526957,0.6920821114369502
19.77179743613056,0.7043010752688172
19.78179834530412,0.6994134897360704
19.79179925447768,0.7030791788856305
19.801800163651244,0.7030791788856305
19.811801072824803,0.696969696969697
19.821801981998366,0.6957478005865103
19.831802891171925,0.6908602150537635
19.841803800345488,0.6957478005865103
19.851804709519048,0.696969696969697
19.86180561869261,0.6994134897360704
19.87180652786617,0.6957478005865103
19.881807437039733,0.7030791788856305
19.891808346213292,0.7006353861192571
19.901809255386855,0.6920821114369502
19.911810164560418,0.696969696969697
19.921811073733977,0.6920821114369502
19.93181198290754,0.7030791788856305
19.9418128920811,0.6981915933528837
19.951813801254662,0.7030791788856305
19.96181471042822,0.7030791788856305
19.971815619601784,0.6957478005865103
19.981816528775344,0.6920821114369502
19.991817437948907,0.6957478005865103
20.001818347122466,0.6908602150537635
20.01181925629603,0.7030791788856305
20.021820165469588,0.6994134897360704
20.03182107464315,0.7030791788856305
20.04182198381671,0.7043010752688172
20.051822892990273,0.6957478005865103
20.061823802163836,0.6920821114369502
20.071824711337396,0.6957478005865103
20.08182562051096,0.6920821114369502
20.091826529684518,0.7030791788856305
20.10182743885808,0.6994134897360704
20.11182834803164,0.7030791788856305
20.121829257205203,0.7030791788856305
20.131830166378762,0.6957478005865103
20.141831075552325,0.6908602150537635
20.151831984725884,0.6957478005865103
20.161832893899447,0.6908602150537635
20.171833803073007,0.7030791788856305
20.18183471224657,0.6994134897360704
20.191835621420132,0.696969696969697
20.201836530593692,0.705522971652004
20.211837439767255,0.6957478005865103
20.221838348940814,0.6957478005865103
20.231839258114377,0.7079667644183774
20.241840167287936,0.7006353861192571
20.2518410764615,0.7030791788856305
20.26184198563506,0.6994134897360704
20.27184289480862,0.7030791788856305
20.28184380398218,0.7030791788856305
20.291844713155744,0.6957478005865103
20.301845622329303,0.6920821114369502
20.311846531502866,0.696969696969697
20.321847440676425,0.6908602150537635
20.331848349849988,0.7030791788856305
20.34184925902355,0.6994134897360704
20.35185016819711,0.7030791788856305
20.361851077370673,0.6920821114369502
20.371851986544232,0.6957478005865103
20.381852895717795,0.7006353861192571
20.391853804891355,0.7006353861192571
20.401854714064918,0.7324046920821115
20.411855623238477,0.7434017595307918
20.42185653241204,0.7519550342130987
20.4318574415856,0.7348484848484849
20.441858350759162,0.7214076246334311
20.45185925993272,0.7214076246334311
20.461860169106284,0.6957478005865103
20.471861078279844,0.6823069403714564
20.481861987453406,0.6945259042033236
20.49186289662697,0.6994134897360704
20.50186380580053,0.7030791788856305
20.51186471497409,0.7128543499511242
20.52186562414765,0.7006353861192571
20.531866533321214,0.6920821114369502
20.541867442494773,0.7006353861192571
20.551868351668336,0.7018572825024438
20.561869260841895,0.7043010752688172
20.57187017001546,0.6994134897360704
20.581871079189018,0.7030791788856305
20.59187198836258,0.7128543499511242
20.60187289753614,0.7104105571847508
20.611873806709703,0.7006353861192571
20.621874715883262,0.7079667644183774
20.631875625056825,0.705522971652004
20.641876534230388,0.7091886608015641
20.651877443403947,0.7128543499511242
20.66187835257751,0.7226295210166178
20.67187926175107,0.7104105571847508
20.681880170924632,0.7104105571847508
20.69188108009819,0.7104105571847508
20.701881989271754,0.7104105571847508
20.711882898445314,0.7226295210166178
20.721883807618877,0.7214076246334311
20.731884716792436,0.7275171065493646
20.741885625966,0.7324046920821115
20.75188653513956,0.7250733137829912
20.76188744431312,0.7201857282502444
20.77188835348668,0.729960899315738
20.781889262660243,0.7214076246334311
20.791890171833806,0.7324046920821115
20.801891081007366,0.7287390029325513
20.81189199018093,0.7275171065493646
20.821892899354488,0.7324046920821115
20.83189380852805,0.7201857282502444
20.84189471770161,0.7104105571847508
20.851895626875173,0.7104105571847508
20.861896536048732,0.7018572825024438
20.871897445222295,0.7128543499511242
20.881898354395855,0.7043010752688172
20.891899263569417,0.7067448680351907
20.901900172742977,0.7128543499511242
20.91190108191654,0.7006353861192571
20.921901991090103,0.7006353861192571
20.931902900263662,0.7006353861192571
20.941903809437225,0.6920821114369502
20.951904718610784,0.705522971652004
20.961905627784347,0.6994134897360704
20.971906536957906,0.7030791788856305
20.98190744613147,0.705522971652004
20.99190835530503,0.6957478005865103
21.00190926447859,0.6920821114369502
21.01191017365215,0.6957478005865103
21.021911082825714,0.6957478005865103
21.031911991999273,0.7030791788856305
21.041912901172836,0.6994134897360704
21.051913810346395,0.7030791788856305
21.061914719519958,0.6957478005865103
21.07191562869352,0.6957478005865103
21.08191653786708,0.7006353861192571
21.091917447040643,0.6957478005865103
21.101918356214203,0.7043010752688172
21.111919265387765,0.6994134897360704
21.121920174561325,0.7030791788856305
21.131921083734888,0.7128543499511242
21.141921992908447,0.7006353861192571
21.15192290208201,0.6908602150537635
21.16192381125557,0.7079667644183774
21.171924720429132,0.6957478005865103
21.18192562960269,0.7030791788856305
21.191926538776254,0.6994134897360704
21.201927447949814,0.7030791788856305
21.211928357123377,0.7030791788856305
21.22192926629694,0.696969696969697
21.2319301754705,0.6957478005865103
21.24193108464406,0.6957478005865103
21.25193199381762,0.6957478005865103
21.261932902991184,0.7043010752688172
21.271933812164743,0.6994134897360704
21.281934721338306,0.7030791788856305
21.291935630511865,0.705522971652004
21.30193653968543,0.696969696969697
21.311937448858988,0.7006353861192571
21.32193835803255,0.7006353861192571
21.33193926720611,0.6957478005865103
21.341940176379673,0.7030791788856305
21.351941085553232,0.6994134897360704
21.361941994726795,0.7030791788856305
21.371942903900358,0.705522971652004
21.381943813073917,0.6957478005865103
21.39194472224748,0.696969696969697
21.40194563142104,0.6957478005865103
21.411946540594602,0.696969696969697
21.42194744976816,0.7030791788856305
21.431948358941725,0.6994134897360704
21.441949268115284,0.7043010752688172
21.451950177288847,0.705522971652004
21.461951086462406,0.6920821114369502
21.47195199563597,0.6920821114369502
21.48195290480953,0.7006353861192571
21.49195381398309,0.7030791788856305
21.50195472315665,0.7043010752688172
21.511955632330213,0.7030791788856305
21.521956541503776,0.705522971652004
21.531957450677336,0.7079667644183774
21.5419583598509,0.7006353861192571
21.551959269024458,0.7018572825024438
21.56196017819802,0.7006353861192571
21.57196108737158,0.7030791788856305
21.581961996545143,0.6994134897360704
21.591962905718702,0.705522971652004
21.601963814892265,0.7030791788856305
21.611964724065825,0.6957478005865103
21.621965633239387,0.6957478005865103
21.631966542412947,0.6920821114369502
21.64196745158651,0.6908602150537635
21.65196836076007,0.6957478005865103
21.661969269933632,0.6994134897360704
21.671970179107195,0.696969696969697
21.681971088280754,0.7030791788856305
21.691971997454317,0.7006353861192571
21.701972906627876,0.7006353861192571
21.71197381580144,0.7116324535679375
21.721974724975,0.729960899315738
21.73197563414856,0.7421798631476051
21.74197654332212,0.7434017595307918
21.751977452495684,0.7275171065493646
21.761978361669243,0.7275171065493646
21.771979270842806,0.7165200391006843
21.781980180016365,0.6725317693059628
21.791981089189928,0.6908602150537635
21.80198199836349,0.6957478005865103
21.81198290753705,0.7128543499511242
21.821983816710613,0.7018572825024438
21.831984725884173,0.7043010752688172
21.841985635057735,0.705522971652004
21.851986544231295,0.7006353861192571
21.861987453404858,0.7006353861192571
21.871988362578417,0.7006353861192571
21.88198927175198,0.6920821114369502
21.89199018092554,0.7128543499511242
21.901991090099102,0.7043010752688172
21.91199199927266,0.7128543499511242
21.921992908446224,0.7104105571847508
21.931993817619784,0.7006353861192571
21.941994726793347,0.7104105571847508
21.95199563596691,0.7079667644183774
21.96199654514047,0.7128543499511242
21.97199745431403,0.7116324535679375
21.98199836348759,0.7128543499511242
21.991999272661154,0.7165200391006843
22.002000181834713,0.7104105571847508
22.012001091008276,0.7104105571847508
22.022002000181836,0.7152981427174976
22.0320029093554,0.7104105571847508
22.042003818528958,0.7275171065493646
22.05200472770252,0.7238514173998045
22.06200563687608,0.7275171065493646
22.072006546049643,0.7324046920821115
22.082007455223202,0.7250733137829912
22.092008364396765,0.7214076246334311
22.102009273570328,0.7348484848484849
22.112010182743887,0.7250733137829912
22.12201109191745,0.7275171065493646
22.13201200109101,0.7189638318670577
22.142012910264572,0.7275171065493646
22.15201381943813,0.7226295210166178
22.162014728611695,0.7116324535679375
22.172015637785254,0.7079667644183774
22.182016546958817,0.7006353861192571
22.192017456132376,0.7079667644183774
22.20201836530594,0.7043010752688172
22.2120192744795,0.7043010752688172
22.22202018365306,0.7030791788856305
22.23202109282662,0.7030791788856305
22.242022002000184,0.7018572825024438
22.252022911173746,0.6908602150537635
22.262023820347306,0.7006353861192571
22.27202472952087,0.6957478005865103
22.282025638694428,0.7030791788856305
22.29202654786799,0.6994134897360704
22.30202745704155,0.7030791788856305
22.312028366215113,0.7030791788856305
22.322029275388672,0.7006353861192571
22.332030184562235,0.6957478005865103
22.342031093735795,0.6920821114369502
22.352032002909358,0.705522971652004
22.362032912082917,0.6994134897360704
22.37203382125648,0.7030791788856305
22.38203473043004,0.7030791788856305
22.392035639603602,0.696969696969697
22.402036548777165,0.6957478005865103
22.412037457950724,0.7104105571847508
22.422038367124287,0.6920821114369502
22.432039276297846,0.7043010752688172
22.44204018547141,0.7018572825024438
22.45204109464497,0.7030791788856305
22.46204200381853,0.7067448680351907
22.47204291299209,0.7006353861192571
22.482043822165654,0.6957478005865103
22.492044731339213,0.696969696969697
22.502045640512776,0.696969696969697
22.512046549686335,0.7030791788856305
22.5220474588599,0.7018572825024438
22.53204836803346,0.7030791788856305
22.54204927720702,0.7030791788856305
22.552050186380583,0.696969696969697
22.562051095554143,0.696969696969697
22.572052004727706,0.7006353861192571
22.582052913901265,0.6920821114369502
22.592053823074828,0.7030791788856305
22.602054732248387,0.6994134897360704
22.61205564142195,0.7030791788856305
22.62205655059551,0.7030791788856305
22.632057459769072,0.696969696969697
22.64205836894263,0.6908602150537635
22.652059278116194,0.7006353861192571
22.662060187289754,0.696969696969697
22.672061096463317,0.6957478005865103
22.68206200563688,0.6981915933528837
22.69206291481044,0.7030791788856305
22.702063823984002,0.7067448680351907
22.71206473315756,0.7018572825024438
22.722065642331124,0.6920821114369502
22.732066551504683,0.6957478005865103
22.742067460678246,0.6920821114369502
22.752068369851806,0.7030791788856305
22.76206927902537,0.7030791788856305
22.772070188198928,0.705522971652004
22.78207109737249,0.7006353861192571
22.79207200654605,0.6908602150537635
22.802072915719613,0.7018572825024438
22.812073824893172,0.6957478005865103
22.822074734066735,0.7030791788856305
22.832075643240298,0.7018572825024438
22.842076552413857,0.7030791788856305
22.85207746158742,0.7128543499511242
22.86207837076098,0.7079667644183774
22.872079279934542,0.696969696969697
22.882080189108102,0.7006353861192571
22.892081098281665,0.696969696969697
22.902082007455224,0.7030791788856305
22.912082916628787,0.6994134897360704
22.922083825802346,0.7030791788856305
22.93208473497591,0.7030791788856305
22.94208564414947,0.6957478005865103
22.95208655332303,0.6957478005865103
22.96208746249659,0.6957478005865103
22.972088371670154,0.6871945259042033
22.982089280843716,0.6957478005865103
22.992090190017276,0.6994134897360704
23.00209109919084,0.6957478005865103
23.012092008364398,0.7030791788856305
23.02209291753796,0.7079667644183774
23.03209382671152,0.7116324535679375
23.042094735885083,0.729960899315738
23.052095645058643,0.7397360703812317
23.062096554232205,0.7336265884652982
23.072097463405765,0.7238514173998045
23.082098372579328,0.7324046920821115
23.092099281752887,0.7226295210166178
23.10210019092645,0.6810850439882697
23.11210110010001,0.6871945259042033
23.122102009273572,0.7006353861192571
23.132102918447135,0.7006353861192571
23.142103827620694,0.7030791788856305
23.152104736794257,0.6994134897360704
23.162105645967817,0.7043010752688172
23.17210655514138,0.7043010752688172
23.18210746431494,0.7006353861192571
23.1921083734885,0.6957478005865103
23.20210928266206,0.7006353861192571
23.212110191835624,0.696969696969697
23.222111101009183,0.7030791788856305
23.232112010182746,0.7018572825024438
23.242112919356305,0.7067448680351907
23.25211382852987,0.7128543499511242
23.26211473770343,0.7104105571847508
23.27211564687699,0.7018572825024438
23.282116556050553,0.7079667644183774
23.292117465224113,0.7018572825024438
23.302118374397676,0.7128543499511242
23.312119283571235,0.7067448680351907
23.322120192744798,0.7165200391006843
23.332121101918357,0.7226295210166178
23.34212201109192,0.7116324535679375
23.35212292026548,0.7104105571847508
23.362123829439042,0.7201857282502444
23.3721247386126,0.7165200391006843
23.382125647786165,0.7275171065493646
23.392126556959724,0.7238514173998045
23.402127466133287,0.7324046920821115
23.41212837530685,0.7324046920821115
23.42212928448041,0.7250733137829912
23.432130193653972,0.7250733137829912
23.44213110282753,0.7250733137829912
23.452132012001094,0.7201857282502444
23.462132921174653,0.7275171065493646
23.472133830348216,0.7189638318670577
23.482134739521776,0.7128543499511242
23.49213564869534,0.7104105571847508
23.502136557868898,0.6957478005865103
23.51213746704246,0.7079667644183774
23.52213837621602,0.7006353861192571
23.532139285389583,0.7043010752688172
23.542140194563142,0.7018572825024438
23.552141103736705,0.7030791788856305
23.562142012910268,0.7030791788856305
23.572142922083827,0.6957478005865103
23.58214383125739,0.6871945259042033
23.59214474043095,0.6957478005865103
23.602145649604513,0.696969696969697
23.612146558778072,0.7030791788856305
23.622147467951635,0.6994134897360704
23.632148377125194,0.7128543499511242
23.642149286298757,0.7006353861192571
23.652150195472316,0.6908602150537635
23.66215110464588,0.6957478005865103
23.67215201381944,0.6920821114369502
23.682152922993,0.7030791788856305
23.69215383216656,0.6994134897360704
23.702154741340124,0.7030791788856305
23.712155650513687,0.7030791788856305
23.722156559687246,0.7006353861192571
23.73215746886081,0.6920821114369502
23.742158378034368,0.7006353861192571
23.75215928720793,0.6957478005865103
23.76216019638149,0.7043010752688172
23.772161105555053,0.6994134897360704
23.782162014728613,0.7030791788856305
23.792162923902175,0.7043010752688172
23.802163833075735,0.7079667644183774
23.812164742249298,0.6957478005865103
23.822165651422857,0.696969696969697
23.83216656059642,0.6920821114369502
23.84216746976998,0.7030791788856305
23.852168378943542,0.6994134897360704
23.862169288117105,0.705522971652004
23.872170197290664,0.705522971652004
23.882171106464227,0.7006353861192571
23.892172015637787,0.6920821114369502
23.90217292481135,0.696969696969697
23.91217383398491,0.6920821114369502
23.92217474315847,0.7043010752688172
23.93217565233203,0.6994134897360704
23.942176561505594,0.7043010752688172
23.952177470679153,0.7030791788856305
23.962178379852716,0.6957478005865103
23.972179289026275,0.6908602150537635
23.98218019819984,0.696969696969697
23.992181107373398,0.6957478005865103
24.00218201654696,0.7030791788856305
24.012182925720523,0.6994134897360704
24.022183834894083,0.7030791788856305
24.032184744067646,0.7030791788856305
24.042185653241205,0.696969696969697
24.052186562414768,0.6871945259042033
24.062187471588327,0.7006353861192571
24.07218838076189,0.6957478005865103
24.08218928993545,0.7030791788856305
24.092190199109012,0.6994134897360704
24.10219110828257,0.7030791788856305
24.112192017456135,0.7030791788856305
24.122192926629694,0.696969696969697
24.132193835803257,0.696969696969697
24.14219474497682,0.696969696969697
24.15219565415038,0.7018572825024438
24.162196563323942,0.7043010752688172
24.1721974724975,0.7018572825024438
24.182198381671064,0.7043010752688172
24.192199290844624,0.7128543499511242
24.202200200018186,0.7018572825024438
24.212201109191746,0.6957478005865103
24.22220201836531,0.6908602150537635
24.232202927538868,0.6933040078201369
24.24220383671243,0.6994134897360704
24.25220474588599,0.696969696969697
24.262205655059553,0.7030791788856305
24.272206564233112,0.6957478005865103
24.282207473406675,0.6908602150537635
24.292208382580238,0.6957478005865103
24.302209291753798,0.6957478005865103
24.31221020092736,0.7030791788856305
24.32221111010092,0.7043010752688172
24.332212019274483,0.7275171065493646
24.342212928448042,0.7421798631476051
24.352213837621605,0.7495112414467253
24.362214746795164,0.7348484848484849
24.372215655968727,0.7250733137829912
24.382216565142286,0.729960899315738
24.39221747431585,0.7128543499511242
24.40221838348941,0.6871945259042033
24.41221929266297,0.696969696969697
24.42222020183653,0.7128543499511242
24.432221111010094,0.7006353861192571
24.442222020183657,0.6908602150537635
24.452222929357216,0.7006353861192571
24.46222383853078,0.6957478005865103
24.472224747704338,0.7030791788856305
24.4822256568779,0.7018572825024438
24.49222656605146,0.7030791788856305
24.502227475225023,0.705522971652004
24.512228384398583,0.7006353861192571
24.522229293572146,0.696969696969697
24.532230202745705,0.7006353861192571
24.542231111919268,0.7079667644183774
24.552232021092827,0.7128543499511242
24.56223293026639,0.7043010752688172
24.57223383943995,0.7067448680351907
24.582234748613512,0.7128543499511242
24.592235657787075,0.7104105571847508
24.602236566960634,0.7104105571847508
24.612237476134197,0.7104105571847508
24.622238385307757,0.7104105571847508
24.63223929448132,0.7128543499511242
24.64224020365488,0.7116324535679375
24.65224111282844,0.7226295210166178
24.662242022002,0.7275171065493646
24.672242931175564,0.7201857282502444
24.682243840349123,0.7152981427174976
24.692244749522686,0.7250733137829912
24.702245658696246,0.7250733137829912
24.71224656786981,0.7324046920821115
24.722247477043368,0.7262952101661779
24.73224838621693,0.7324046920821115
24.742249295390494,0.7324046920821115
24.752250204564053,0.7250733137829912
24.762251113737616,0.7152981427174976
24.772252022911175,0.7201857282502444
24.782252932084738,0.7104105571847508
24.792253841258297,0.7128543499511242
24.80225475043186,0.7091886608015641
24.81225565960542,0.7128543499511242
24.822256568778982,0.705522971652004
24.832257477952542,0.7006353861192571
24.842258387126105,0.6920821114369502
24.852259296299664,0.7006353861192571
24.862260205473227,0.6920821114369502
24.87226111464679,0.7030791788856305
24.88226202382035,0.6994134897360704
24.892262932993912,0.696969696969697
24.90226384216747,0.7128543499511242
24.912264751341034,0.7104105571847508
24.922265660514594,0.696969696969697
24.932266569688156,0.6957478005865103
24.942267478861716,0.7030791788856305
24.95226838803528,0.6994134897360704
24.962269297208838,0.7030791788856305
24.9722702063824,0.7030791788856305
24.98227111555596,0.6957478005865103
24.992272024729523,0.6957478005865103
25.002272933903082,0.7006353861192571
25.012273843076645,0.6908602150537635
25.02227475225021,0.7030791788856305
25.032275661423768,0.7043010752688172
25.04227657059733,0.7030791788856305
25.05227747977089,0.7030791788856305
25.062278388944453,0.7018572825024438
25.072279298118012,0.6908602150537635
25.082280207291575,0.7006353861192571
25.092281116465134,0.6920821114369502
25.102282025638697,0.7030791788856305
25.112282934812256,0.6994134897360704
25.12228384398582,0.7030791788856305
25.13228475315938,0.7043010752688172
25.14228566233294,0.7006353861192571
25.1522865715065,0.6957478005865103
25.162287480680064,0.6957478005865103
25.172288389853627,0.6920821114369502
25.182289299027186,0.7030791788856305
25.19229020820075,0.6994134897360704
25.20229111737431,0.7030791788856305
25.21229202654787,0.7030791788856305
25.22229293572143,0.6957478005865103
25.232293844894993,0.6957478005865103
25.242294754068553,0.6957478005865103
25.252295663242116,0.6957478005865103
25.262296572415675,0.705522971652004
25.272297481589238,0.6981915933528837
25.282298390762797,0.7030791788856305
25.29229929993636,0.7030791788856305
25.30230020910992,0.7006353861192571
25.312301118283482,0.6920821114369502
25.322302027457045,0.696969696969697
25.332302936630605,0.6957478005865103
25.342303845804167,0.7030791788856305
25.352304754977727,0.6994134897360704
25.36230566415129,0.7030791788856305
25.37230657332485,0.7006353861192571
25.382307482498412,0.6920821114369502
25.39230839167197,0.7006353861192571
25.402309300845534,0.6957478005865103
25.412310210019093,0.7030791788856305
25.422311119192656,0.6994134897360704
25.432312028366216,0.7030791788856305
25.44231293753978,0.705522971652004
25.452313846713338,0.7006353861192571
25.4623147558869,0.7006353861192571
25.472315665060464,0.7006353861192571
25.482316574234023,0.7006353861192571
25.492317483407586,0.705522971652004
25.502318392581145,0.7030791788856305
25.512319301754708,0.7030791788856305
25.522320210928267,0.6957478005865103
25.53232112010183,0.6920821114369502
25.54232202927539,0.6957478005865103
25.552322938448953,0.6920821114369502
25.562323847622512,0.696969696969697
25.572324756796075,0.6994134897360704
25.582325665969634,0.7030791788856305
25.592326575143197,0.6957478005865103
25.60232748431676,0.6957478005865103
25.61232839349032,0.6908602150537635
25.622329302663882,0.7079667644183774
25.63233021183744,0.7201857282502444
25.642331121011004,0.7421798631476051
25.652332030184564,0.7434017595307918
25.662332939358127,0.7324046920821115
25.672333848531686,0.7324046920821115
25.68233475770525,0.7250733137829912
25.692335666878808,0.6908602150537635
25.70233657605237,0.6859726295210166
25.71233748522593,0.6908602150537635
25.722338394399493,0.7030791788856305
25.732339303573053,0.7043010752688172
25.742340212746615,0.6945259042033236
25.75234112192018,0.7128543499511242
25.762342031093738,0.7079667644183774
25.7723429402673,0.696969696969697
25.78234384944086,0.7006353861192571
25.792344758614423,0.7006353861192571
25.802345667787982,0.7043010752688172
25.812346576961545,0.7043010752688172
25.822347486135104,0.7030791788856305
25.832348395308667,0.7128543499511242
25.842349304482227,0.7104105571847508
25.85235021365579,0.7018572825024438
25.86235112282935,0.7104105571847508
25.87235203200291,0.7006353861192571
25.88235294117647,0.7128543499511242
25.892353850350034,0.7091886608015641
25.902354759523597,0.7128543499511242
25.912355668697156,0.7165200391006843
25.92235657787072,0.7104105571847508
25.93235748704428,0.7165200391006843
25.94235839621784,0.7152981427174976
25.9523593053914,0.7226295210166178
25.962360214564963,0.7189638318670577
25.972361123738523,0.7275171065493646
25.982362032912086,0.7324046920821115
25.992362942085645,0.729960899315738
26.002363851259208,0.7214076246334311
26.012364760432767,0.7262952101661779
26.02236566960633,0.7214076246334311
26.03236657877989,0.7324046920821115
26.042367487953452,0.7287390029325513
26.052368397127015,0.7275171065493646
26.062369306300575,0.7226295210166178
26.072370215474137,0.7152981427174976
26.082371124647697,0.7079667644183774
26.09237203382126,0.7104105571847508
26.10237294299482,0.696969696969697
26.112373852168382,0.7030791788856305
26.12237476134194,0.7018572825024438
26.132375670515504,0.7067448680351907
26.142376579689063,0.7030791788856305
26.152377488862626,0.7006353861192571
26.162378398036186,0.6957478005865103
26.17237930720975,0.6957478005865103
26.182380216383308,0.6957478005865103
26.19238112555687,0.7030791788856305
26.202382034730434,0.6994134897360704
26.212382943903993,0.7030791788856305
26.222383853077556,0.7030791788856305
26.232384762251115,0.6957478005865103
26.242385671424678,0.6957478005865103
26.252386580598237,0.6957478005865103
26.2623874897718,0.6908602150537635
26.27238839894536,0.696969696969697
26.282389308118923,0.6994134897360704
26.292390217292482,0.7030791788856305
26.302391126466045,0.705522971652004
26.312392035639604,0.7018572825024438
26.322392944813167,0.696969696969697
26.332393853986726,0.7006353861192571
26.34239476316029,0.696969696969697
26.352395672333852,0.7030791788856305
26.36239658150741,0.7018572825024438
26.372397490680974,0.7030791788856305
26.382398399854534,0.7128543499511242
26.392399309028097,0.7018572825024438
26.402400218201656,0.696969696969697
26.41240112737522,0.7006353861192571
26.422402036548778,0.6957478005865103
26.43240294572234,0.7030791788856305
26.4424038548959,0.6994134897360704
26.452404764069463,0.7030791788856305
26.462405673243023,0.7030791788856305
26.472406582416586,0.7006353861192571
26.48240749159015,0.6957478005865103
26.492408400763708,0.6920821114369502
26.50240930993727,0.6957478005865103
26.51241021911083,0.7030791788856305
26.522411128284393,0.6994134897360704
26.532412037457952,0.7030791788856305
26.542412946631515,0.7030791788856305
26.552413855805074,0.6957478005865103
26.562414764978637,0.6920821114369502
26.572415674152197,0.7006353861192571
26.58241658332576,0.6920821114369502
26.59241749249932,0.7030791788856305
26.60241840167288,0.6994134897360704
26.61241931084644,0.7030791788856305
26.622420220020004,0.7030791788856305
26.632421129193567,0.696969696969697
26.642422038367126,0.6957478005865103
26.65242294754069,0.6957478005865103
26.66242385671425,0.6908602150537635
26.67242476588781,0.7030791788856305
26.68242567506137,0.6994134897360704
26.692426584234934,0.7030791788856305
26.702427493408493,0.7030791788856305
26.712428402582056,0.696969696969697
26.722429311755615,0.6957478005865103
26.732430220929178,0.7006353861192571
26.742431130102737,0.6957478005865103
26.7524320392763,0.7043010752688172
26.76243294844986,0.6994134897360704
26.772433857623422,0.7043010752688172
26.782434766796985,0.7128543499511242
26.792435675970545,0.7006353861192571
26.802436585144108,0.6957478005865103
26.812437494317667,0.7079667644183774
26.82243840349123,0.6957478005865103
26.83243931266479,0.7030791788856305
26.842440221838352,0.6994134897360704
26.85244113101191,0.696969696969697
26.862442040185474,0.705522971652004
26.872442949359034,0.7006353861192571
26.882443858532596,0.6920821114369502
26.892444767706156,0.7006353861192571
26.90244567687972,0.6957478005865103
26.912446586053278,0.696969696969697
26.92244749522684,0.6994134897360704
26.932448404400404,0.7030791788856305
26.942449313573963,0.7128543499511242
26.952450222747526,0.7104105571847508
26.962451131921085,0.729960899315738
26.972452041094648,0.7470674486803519
26.982452950268208,0.7397360703812317
26.99245385944177,0.7324046920821115
27.00245476861533,0.7238514173998045
27.012455677788893,0.7275171065493646
27.022456586962452,0.6933040078201369
27.032457496136015,0.6908602150537635
27.042458405309574,0.6957478005865103
27.052459314483137,0.7006353861192571
27.062460223656696,0.6957478005865103
27.07246113283026,0.7030791788856305
27.082462042003822,0.7018572825024438
27.09246295117738,0.7030791788856305
27.102463860350944,0.7128543499511242
27.112464769524504,0.7079667644183774
27.122465678698067,0.696969696969697
27.132466587871626,0.6957478005865103
27.14246749704519,0.7006353861192571
27.15246840621875,0.7067448680351907
27.16246931539231,0.7018572825024438
27.17247022456587,0.7128543499511242
27.182471133739433,0.7128543499511242
27.192472042912993,0.7104105571847508
27.202472952086556,0.7079667644183774
27.21247386126012,0.7104105571847508
27.222474770433678,0.7079667644183774
27.23247567960724,0.7128543499511242
27.2424765887808,0.7116324535679375
27.252477497954363,0.7226295210166178
27.262478407127922,0.7275171065493646
27.272479316301485,0.7165200391006843
27.282480225475044,0.7152981427174976
27.292481134648607,0.7201857282502444
27.302482043822167,0.7165200391006843
27.31248295299573,0.7324046920821115
27.32248386216929,0.7287390029325513
27.332484771342852,0.7324046920821115
27.34248568051641,0.7360703812316716
27.352486589689974,0.7250733137829912
27.362487498863537,0.7250733137829912
27.372488408037096,0.729960899315738
27.38248931721066,0.7201857282502444
27.39249022638422,0.7226295210166178
27.40249113555778,0.7238514173998045
27.41249204473134,0.7140762463343109
27.422492953904904,0.7152981427174976
27.432493863078463,0.7104105571847508
27.442494772252026,0.7104105571847508
27.452495681425585,0.7006353861192571
27.462496590599148,0.7030791788856305
27.472497499772707,0.7018572825024438
27.48249840894627,0.7128543499511242
27.49249931811983,0.7030791788856305
27.502500227293392,0.7006353861192571
27.512501136466955,0.6957478005865103
27.522502045640515,0.7006353861192571
27.532502954814078,0.696969696969697
27.542503863987637,0.7030791788856305
27.5525047731612,0.6994134897360704
27.56250568233476,0.7030791788856305
27.572506591508322,0.705522971652004
27.58250750068188,0.7006353861192571
27.592508409855444,0.696969696969697
27.602509319029004,0.7006353861192571
27.612510228202567,0.6957478005865103
27.622511137376126,0.7030791788856305
27.63251204654969,0.6994134897360704
27.642512955723248,0.7030791788856305
27.65251386489681,0.7030791788856305
27.662514774070374,0.6957478005865103
27.672515683243933,0.7006353861192571
27.682516592417496,0.6957478005865103
27.692517501591055,0.7006353861192571
27.70251841076462,0.7067448680351907
27.712519319938178,0.6994134897360704
27.72252022911174,0.705522971652004
27.7325211382853,0.7128543499511242
27.742522047458863,0.6957478005865103
27.752522956632422,0.6957478005865103
27.762523865805985,0.7018572825024438
27.772524774979544,0.6908602150537635
27.782525684153107,0.7030791788856305
27.792526593326667,0.6994134897360704
27.80252750250023,0.7030791788856305
27.812528411673792,0.7067448680351907
27.82252932084735,0.7006353861192571
27.832530230020915,0.696969696969697
27.842531139194474,0.7006353861192571
27.852532048368037,0.6957478005865103
27.862532957541596,0.7030791788856305
27.87253386671516,0.7043010752688172
27.88253477588872,0.7030791788856305
27.89253568506228,0.7030791788856305
27.90253659423584,0.6957478005865103
27.912537503409403,0.6957478005865103
27.922538412582963,0.7006353861192571
27.932539321756526,0.6920821114369502
27.942540230930085,0.705522971652004
27.952541140103648,0.6994134897360704
27.96254204927721,0.7030791788856305
27.97254295845077,0.7030791788856305
27.982543867624333,0.7006353861192571
27.992544776797892,0.696969696969697
28.002545685971455,0.7006353861192571
28.012546595145015,0.7030791788856305
28.022547504318577,0.7043010752688172
28.032548413492137,0.7043010752688172
28.0425493226657,0.7128543499511242
28.05255023183926,0.705522971652004
28.062551141012822,0.7006353861192571
28.07255205018638,0.7079667644183774
28.082552959359944,0.6908602150537635
28.092553868533507,0.7030791788856305
28.102554777707066,0.6994134897360704
28.11255568688063,0.7030791788856305
28.12255659605419,0.705522971652004
28.13255750522775,0.6957478005865103
28.14255841440131,0.6871945259042033
28.152559323574874,0.7006353861192571
28.162560232748433,0.696969696969697
28.172561141921996,0.7030791788856305
28.182562051095555,0.6994134897360704
28.192562960269118,0.7030791788856305
28.202563869442677,0.7128543499511242
28.21256477861624,0.7214076246334311
28.2225656877898,0.7360703812316716
28.232566596963363,0.7409579667644184
28.242567506136925,0.7250733137829912
28.252568415310485,0.7275171065493646
28.262569324484048,0.7262952101661779
28.272570233657607,0.7128543499511242
28.28257114283117,0.6933040078201369
28.29257205200473,0.6920821114369502
28.302572961178292,0.7018572825024438
28.31257387035185,0.7018572825024438
28.322574779525414,0.7030791788856305
28.332575688698974,0.7018572825024438
28.342576597872537,0.7067448680351907
28.352577507046096,0.705522971652004
28.36257841621966,0.7104105571847508
28.372579325393218,0.7018572825024438
28.38258023456678,0.7018572825024438
28.392581143740344,0.7006353861192571
28.402582052913903,0.7128543499511242
28.412582962087466,0.7043010752688172
28.422583871261025,0.7128543499511242
28.43258478043459,0.7128543499511242
28.442585689608148,0.7104105571847508
28.45258659878171,0.7079667644183774
28.46258750795527,0.7104105571847508
28.472588417128833,0.7079667644183774
28.482589326302392,0.7128543499511242
28.492590235475955,0.7189638318670577
28.502591144649514,0.7140762463343109
28.512592053823077,0.7226295210166178
28.522592962996637,0.7165200391006843
28.5325938721702,0.7152981427174976
28.542594781343762,0.7201857282502444
28.55259569051732,0.7214076246334311
28.562596599690885,0.7324046920821115
28.572597508864444,0.7262952101661779
28.582598418038007,0.7336265884652982
28.592599327211566,0.7324046920821115
28.60260023638513,0.7262952101661779
28.61260114555869,0.7250733137829912
28.62260205473225,0.7262952101661779
28.63260296390581,0.7201857282502444
28.642603873079373,0.7275171065493646
28.652604782252933,0.7189638318670577
28.662605691426496,0.7128543499511242
28.672606600600055,0.7128543499511242
28.682607509773618,0.7104105571847508
28.69260841894718,0.696969696969697
28.70260932812074,0.7006353861192571
28.712610237294303,0.696969696969697
28.722611146467862,0.7043010752688172
28.732612055641425,0.6957478005865103
28.742612964814985,0.705522971652004
28.752613873988548,0.7006353861192571
28.762614783162107,0.7006353861192571
28.77261569233567,0.696969696969697
28.78261660150923,0.6908602150537635
28.792617510682792,0.7067448680351907
28.80261841985635,0.6994134897360704
28.812619329029914,0.7030791788856305
28.822620238203477,0.7030791788856305
28.832621147377036,0.696969696969697
28.8426220565506,0.696969696969697
28.85262296572416,0.7006353861192571
28.86262387489772,0.6957478005865103
28.87262478407128,0.7030791788856305
28.882625693244844,0.7018572825024438
28.892626602418403,0.7030791788856305
28.902627511591966,0.7043010752688172
28.912628420765525,0.7018572825024438
28.922629329939088,0.7006353861192571
28.932630239112648,0.7104105571847508
28.94263114828621,0.6957478005865103
28.95263205745977,0.7030791788856305
28.962632966633333,0.7018572825024438
28.972633875806896,0.7030791788856305
28.982634784980455,0.705522971652004
28.992635694154018,0.7006353861192571
29.002636603327577,0.6957478005865103
29.01263751250114,0.6957478005865103
29.0226384216747,0.7030791788856305
29.032639330848262,0.7018572825024438
29.04264024002182,0.7043010752688172
29.052641149195384,0.7030791788856305
29.062642058368944,0.696969696969697
29.072642967542507,0.6908602150537635
29.082643876716066,0.7006353861192571
29.09264478588963,0.6957478005865103
29.102645695063188,0.7030791788856305
29.11264660423675,0.6994134897360704
29.122647513410314,0.7043010752688172
29.132648422583873,0.7128543499511242
29.142649331757436,0.696969696969697
29.152650240930996,0.6957478005865103
29.16265115010456,0.6957478005865103
29.172652059278118,0.6920821114369502
29.18265296845168,0.7030791788856305
29.19265387762524,0.7043010752688172
29.202654786798803,0.7030791788856305
29.212655695972362,0.7067448680351907
29.222656605145925,0.7006353861192571
29.232657514319484,0.6957478005865103
29.242658423493047,0.7006353861192571
29.252659332666607,0.7006353861192571
29.26266024184017,0.7030791788856305
29.272661151013732,0.6994134897360704
29.282662060187292,0.7128543499511242
29.292662969360855,0.7128543499511242
29.302663878534414,0.7006353861192571
29.312664787707977,0.7079667644183774
29.322665696881536,0.7006353861192571
29.3326666060551,0.6957478005865103
29.34266751522866,0.7030791788856305
29.35266842440222,0.7018572825024438
29.36266933357578,0.7030791788856305
29.372670242749344,0.705522971652004
29.382671151922903,0.6957478005865103
29.392672061096466,0.6957478005865103
29.402672970270025,0.7006353861192571
29.412673879443588,0.6908602150537635
29.42267478861715,0.7030791788856305
29.43267569779071,0.7018572825024438
29.442676606964273,0.7030791788856305
29.452677516137832,0.7348484848484849
29.462678425311395,0.7311827956989247
29.472679334484955,0.7409579667644184
29.482680243658518,0.7214076246334311
29.492681152832077,0.7324046920821115
29.50268206200564,0.7189638318670577
29.5126829711792,0.6884164222873901
29.522683880352762,0.7030791788856305
29.53268478952632,0.7018572825024438
29.542685698699884,0.7006353861192571
29.552686607873447,0.7104105571847508
29.562687517047006,0.6908602150537635
29.57268842622057,0.7043010752688172
29.58268933539413,0.6994134897360704
29.59269024456769,0.7043010752688172
29.60269115374125,0.7128543499511242
29.612692062914814,0.7018572825024438
29.622692972088373,0.696969696969697
29.632693881261936,0.7079667644183774
29.642694790435495,0.7006353861192571
29.65269569960906,0.7128543499511242
29.662696608782618,0.7067448680351907
29.67269751795618,0.7128543499511242
29.68269842712974,0.7128543499511242
29.692699336303303,0.7104105571847508
29.702700245476866,0.7018572825024438
29.712701154650425,0.7152981427174976
29.722702063823988,0.7079667644183774
29.732702972997547,0.717741935483871
29.74270388217111,0.7226295210166178
29.75270479134467,0.7275171065493646
29.762705700518232,0.7152981427174976
29.77270660969179,0.7201857282502444
29.782707518865355,0.7262952101661779
29.792708428038914,0.7201857282502444
29.802709337212477,0.7324046920821115
29.812710246386036,0.7287390029325513
29.8227111555596,0.7324046920821115
29.83271206473316,0.7348484848484849
29.84271297390672,0.7262952101661779
29.852713883080284,0.7250733137829912
29.862714792253843,0.7250733137829912
29.872715701427406,0.7226295210166178
29.882716610600966,0.7189638318670577
29.89271751977453,0.7128543499511242
29.902718428948088,0.7152981427174976
29.91271933812165,0.705522971652004
29.92272024729521,0.6957478005865103
29.932721156468773,0.7079667644183774
29.942722065642332,0.6957478005865103
29.952722974815895,0.7030791788856305
29.962723883989455,0.6994134897360704
29.972724793163017,0.7030791788856305
29.982725702336577,0.7030791788856305
29.99272661151014,0.7006353861192571
30.002727520683703,0.6957478005865103
30.012728429857262,0.7006353861192571
30.022729339030825,0.696969696969697
30.032730248204384,0.7043010752688172
30.042731157377947,0.7018572825024438
30.052732066551506,0.7030791788856305
30.06273297572507,0.705522971652004
30.07273388489863,0.696969696969697
30.08273479407219,0.6957478005865103
30.09273570324575,0.7018572825024438
30.102736612419314,0.696969696969697
30.112737521592873,0.7030791788856305
30.122738430766436,0.6994134897360704
30.132739339939995,0.7030791788856305
30.142740249113558,0.705522971652004
30.15274115828712,0.7006353861192571
30.16274206746068,0.696969696969697
30.172742976634243,0.7006353861192571
30.182743885807803,0.696969696969697
30.192744794981365,0.7030791788856305
30.202745704154925,0.6994134897360704
30.212746613328488,0.7043010752688172
30.222747522502047,0.7128543499511242
30.23274843167561,0.7006353861192571
30.24274934084917,0.6957478005865103
30.252750250022732,0.7018572825024438
30.26275115919629,0.696969696969697
30.272752068369854,0.7030791788856305
30.282752977543414,0.7043010752688172
30.292753886716977,0.7030791788856305
30.30275479589054,0.7128543499511242
30.3127557050641,0.7006353861192571
30.32275661423766,0.6920821114369502
30.33275752341122,0.7006353861192571
30.342758432584784,0.6957478005865103
30.352759341758343,0.7030791788856305
30.362760250931906,0.6994134897360704
30.372761160105465,0.7030791788856305
30.38276206927903,0.705522971652004
30.392762978452588,0.7006353861192571
30.40276388762615,0.6957478005865103
30.41276479679971,0.7006353861192571
30.422765705973273,0.6957478005865103
30.432766615146836,0.7030791788856305
30.442767524320395,0.6994134897360704
30.452768433493958,0.7030791788856305
30.462769342667517,0.705522971652004
30.47277025184108,0.7006353861192571
30.48277116101464,0.6920821114369502
30.492772070188202,0.7006353861192571
30.50277297936176,0.6957478005865103
30.512773888535325,0.7030791788856305
30.522774797708884,0.6994134897360704
30.532775706882447,0.7030791788856305
30.542776616056006,0.7128543499511242
30.55277752522957,0.7079667644183774
30.56277843440313,0.696969696969697
30.57277934357669,0.7006353861192571
30.582780252750254,0.7006353861192571
30.592781161923813,0.7128543499511242
30.602782071097376,0.7018572825024438
30.612782980270936,0.7067448680351907
30.6227838894445,0.7128543499511242
30.632784798618058,0.7006353861192571
30.64278570779162,0.6957478005865103
30.65278661696518,0.7006353861192571
30.662787526138743,0.6908602150537635
30.672788435312302,0.696969696969697
30.682789344485865,0.6994134897360704
30.692790253659425,0.7030791788856305
30.702791162832987,0.7030791788856305
30.712792072006547,0.6957478005865103
30.72279298118011,0.6908602150537635
30.732793890353673,0.6908602150537635
30.742794799527232,0.705522971652004
30.752795708700795,0.7091886608015641
30.762796617874354,0.7324046920821115
30.772797527047917,0.7446236559139785
30.782798436221476,0.7409579667644184
30.79279934539504,0.7262952101661779
30.8028002545686,0.729960899315738
30.81280116374216,0.7214076246334311
30.82280207291572,0.6957478005865103
30.832802982089284,0.6896383186705768
30.842803891262843,0.7128543499511242
30.852804800436406,0.7152981427174976
30.862805709609965,0.7104105571847508
30.872806618783528,0.7006353861192571
30.88280752795709,0.7079667644183774
30.89280843713065,0.7006353861192571
30.902809346304213,0.7043010752688172
30.912810255477773,0.7043010752688172
30.922811164651336,0.7043010752688172
30.932812073824895,0.7128543499511242
30.942812982998458,0.7018572825024438
30.952813892172017,0.7006353861192571
30.96281480134558,0.7018572825024438
30.97281571051914,0.7006353861192571
30.982816619692702,0.7067448680351907
30.99281752886626,0.6994134897360704
31.002818438039824,0.7128543499511242
31.012819347213384,0.7165200391006843
31.022820256386947,0.7104105571847508
31.03282116556051,0.7104105571847508
31.04282207473407,0.7104105571847508
31.05282298390763,0.7104105571847508
31.06282389308119,0.7152981427174976
31.072824802254754,0.7116324535679375
31.082825711428313,0.7226295210166178
31.092826620601876,0.7324046920821115
31.102827529775436,0.7214076246334311
31.112828438949,0.7201857282502444
31.122829348122558,0.7250733137829912
31.13283025729612,0.7250733137829912
31.14283116646968,0.7324046920821115
31.152832075643243,0.7238514173998045
31.162832984816806,0.7324046920821115
31.172833893990365,0.7324046920821115
31.182834803163928,0.7250733137829912
31.192835712337487,0.7201857282502444
31.20283662151105,0.7152981427174976
31.21283753068461,0.7079667644183774
31.222838439858172,0.7128543499511242
31.23283934903173,0.7091886608015641
31.242840258205295,0.7128543499511242
31.252841167378854,0.7128543499511242
31.262842076552417,0.7006353861192571
31.272842985725976,0.6920821114369502
31.28284389489954,0.7006353861192571
31.2928448040731,0.6957478005865103
31.30284571324666,0.7030791788856305
31.312846622420224,0.6994134897360704
31.322847531593784,0.6957478005865103
31.332848440767346,0.7030791788856305
31.342849349940906,0.7079667644183774
31.35285025911447,0.6957478005865103
31.362851168288028,0.7079667644183774
31.37285207746159,0.7006353861192571
31.38285298663515,0.7030791788856305
31.392853895808713,0.6994134897360704
31.402854804982272,0.7030791788856305
31.412855714155835,0.705522971652004
31.422856623329395,0.7079667644183774
31.432857532502958,0.6957478005865103
31.442858441676517,0.696969696969697
31.45285935085008,0.6920821114369502
31.462860260023643,0.7030791788856305
31.472861169197202,0.6994134897360704
31.482862078370765,0.7030791788856305
31.492862987544324,0.7128543499511242
31.502863896717887,0.696969696969697
31.512864805891446,0.6920821114369502
31.52286571506501,0.6957478005865103
31.53286662423857,0.6908602150537635
31.54286753341213,0.7030791788856305
31.55286844258569,0.6994134897360704
31.562869351759254,0.7030791788856305
31.572870260932813,0.7067448680351907
31.582871170106376,0.7006353861192571
31.592872079279935,0.7006353861192571
31.6028729884535,0.6957478005865103
31.61287389762706,0.6957478005865103
31.62287480680062,0.7030791788856305
31.632875715974183,0.7043010752688172
31.642876625147743,0.7030791788856305
31.652877534321306,0.705522971652004
31.662878443494865,0.696969696969697
31.672879352668428,0.696969696969697
31.682880261841987,0.6957478005865103
31.69288117101555,0.6920821114369502
31.70288208018911,0.7030791788856305
31.712882989362672,0.6994134897360704
31.72288389853623,0.7030791788856305
31.732884807709794,0.7030791788856305
31.742885716883354,0.696969696969697
31.752886626056917,0.6920821114369502
31.76288753523048,0.7006353861192571
31.77288844440404,0.6920821114369502
31.782889353577602,0.7030791788856305
31.79289026275116,0.6994134897360704
31.802891171924724,0.7030791788856305
31.812892081098283,0.7030791788856305
31.822892990271846,0.696969696969697
31.832893899445406,0.6920821114369502
31.84289480861897,0.696969696969697
31.852895717792528,0.6957478005865103
31.86289662696609,0.7030791788856305
31.87289753613965,0.6994134897360704
31.882898445313213,0.7030791788856305
31.892899354486772,0.705522971652004
31.902900263660335,0.7079667644183774
31.912901172833898,0.7018572825024438
31.922902082007457,0.7006353861192571
31.93290299118102,0.7006353861192571
31.94290390035458,0.7030791788856305
31.952904809528142,0.7018572825024438
31.962905718701702,0.7030791788856305
31.972906627875265,0.705522971652004
31.982907537048824,0.696969696969697
31.992908446222387,0.6920821114369502
32.00290935539595,0.696969696969697
32.012910264569506,0.6859726295210166
32.02291117374307,0.6945259042033236
32.03291208291663,0.6994134897360704
