x,y
0.0,0.7727272727272727
0.010000833402783566,0.7678396871945259
0.02000166680556713,0.771505376344086
0.0300025002083507,0.7739491691104594
0.04000333361113426,0.7861681329423265
0.05000416701391783,0.7641739980449658
0.0600050004167014,0.7641739980449658
0.07000583381948496,0.7641739980449658
0.08000666722226853,0.771505376344086
0.0900075006250521,0.7776148582600195
0.10000833402783565,0.7653958944281525
0.11000916743061923,0.7751710654936461
0.1200100008334028,0.7690615835777126
0.13001083423618637,0.7641739980449658
0.1400116676389699,0.7653958944281525
0.15001250104175348,0.7641739980449658
0.16001333444453705,0.771505376344086
0.17001416784732062,0.7678396871945259
0.1800150012501042,0.771505376344086
0.19001583465288774,0.771505376344086
0.2000166680556713,0.7690615835777126
0.21001750145845488,0.759286412512219
0.22001833486123845,0.7690615835777126
0.23001916826402202,0.7653958944281525
0.2400200016668056,0.771505376344086
0.25002083506958916,0.7678396871945259
0.26002166847237274,0.771505376344086
0.27002250187515625,0.7739491691104594
0.2800233352779398,0.7690615835777126
0.2900241686807234,0.7690615835777126
0.30002500208350696,0.7739491691104594
0.31002583548629054,0.7690615835777126
0.3200266688890741,0.7812805474095796
0.3300275022918577,0.7776148582600195
0.34002833569464125,0.7739491691104594
0.3500291690974248,0.7812805474095796
0.3600300025002084,0.7690615835777126
0.37003083590299196,0.7690615835777126
0.3800316693057755,0.7641739980449658
0.39003250270855905,0.7690615835777126
0.4000333361113426,0.771505376344086
0.4100341695141262,0.7678396871945259
0.42003500291690976,0.771505376344086
0.43003583631969333,0.771505376344086
0.4400366697224769,0.7690615835777126
0.4500375031252605,0.7641739980449658
0.46003833652804405,0.7690615835777126
0.4700391699308276,0.7690615835777126
0.4800400033336112,0.771505376344086
0.4900408367363947,0.7776148582600195
0.5000416701391783,0.8057184750733137
0.5100425035419619,0.813049853372434
0.5200433369447455,0.813049853372434
0.530044170347529,0.7898338220918866
0.5400450037503125,0.7983870967741935
0.5500458371530961,0.7886119257086999
0.5600466705558796,0.7531769305962854
0.5700475039586632,0.7605083088954057
0.5800483373614468,0.771505376344086
0.5900491707642304,0.771505376344086
0.6000500041670139,0.7641739980449658
0.6100508375697975,0.7653958944281525
0.6200516709725811,0.7690615835777126
0.6300525043753646,0.7641739980449658
0.6400533377781482,0.7739491691104594
0.6500541711809318,0.7776148582600195
0.6600550045837154,0.771505376344086
0.6700558379864989,0.7751710654936461
0.6800566713892825,0.7690615835777126
0.6900575047920661,0.759286412512219
0.7000583381948496,0.7739491691104594
0.7100591715976332,0.7751710654936461
0.7200600050004168,0.7727272727272727
0.7300608384032004,0.7702834799608993
0.7400616718059839,0.7812805474095796
0.7500625052087674,0.7910557184750733
0.760063338611551,0.7800586510263929
0.7700641720143345,0.7788367546432062
0.7800650054171181,0.7861681329423265
0.7900658388199017,0.7861681329423265
0.8000666722226852,0.7910557184750733
0.8100675056254688,0.7910557184750733
0.8200683390282524,0.8008308895405669
0.830069172431036,0.7934995112414467
0.8400700058338195,0.7934995112414467
0.8500708392366031,0.7934995112414467
0.8600716726393867,0.7898338220918866
0.8700725060421702,0.8057184750733137
0.8800733394449538,0.7996089931573802
0.8900741728477374,0.8008308895405669
0.900075006250521,0.8008308895405669
0.9100758396533045,0.7947214076246334
0.9200766730560881,0.7886119257086999
0.9300775064588717,0.7861681329423265
0.9400783398616552,0.7886119257086999
0.9500791732644388,0.7763929618768328
0.9600800066672224,0.7812805474095796
0.9700808400700058,0.7751710654936461
0.9800816734727894,0.7702834799608993
0.990082506875573,0.7702834799608993
1.0000833402783567,0.7690615835777126
1.0100841736811401,0.7641739980449658
1.0200850070839238,0.771505376344086
1.0300858404867073,0.7776148582600195
1.040086673889491,0.771505376344086
1.0500875072922744,0.7812805474095796
1.060088340695058,0.7702834799608993
1.0700891740978415,0.7605083088954057
1.080090007500625,0.7641739980449658
1.0900908409034087,0.7641739980449658
1.1000916743061921,0.7727272727272727
1.1100925077089758,0.7678396871945259
1.1200933411117593,0.7812805474095796
1.130094174514543,0.771505376344086
1.1400950079173264,0.7690615835777126
1.1500958413201101,0.7739491691104594
1.1600966747228936,0.7690615835777126
1.1700975081256773,0.7605083088954057
1.1800983415284607,0.771505376344086
1.1900991749312444,0.7763929618768328
1.2001000083340279,0.7727272727272727
1.2101008417368115,0.7812805474095796
1.220101675139595,0.7751710654936461
1.2301025085423787,0.7653958944281525
1.2401033419451621,0.7690615835777126
1.2501041753479458,0.771505376344086
1.2601050087507293,0.7678396871945259
1.270105842153513,0.7617302052785924
1.2801066755562964,0.771505376344086
1.2901075089590799,0.7653958944281525
1.3001083423618636,0.7653958944281525
1.310109175764647,0.7739491691104594
1.3201100091674307,0.7605083088954057
1.3301108425702142,0.771505376344086
1.3401116759729979,0.7678396871945259
1.3501125093757813,0.771505376344086
1.360113342778565,0.771505376344086
1.3701141761813485,0.7641739980449658
1.3801150095841321,0.7690615835777126
1.3901158429869156,0.7702834799608993
1.4001166763896993,0.759286412512219
1.4101175097924827,0.771505376344086
1.4201183431952664,0.7678396871945259
1.4301191765980499,0.771505376344086
1.4401200100008336,0.771505376344086
1.450120843403617,0.7641739980449658
1.4601216768064007,0.7690615835777126
1.4701225102091842,0.7690615835777126
1.4801233436119678,0.7641739980449658
1.4901241770147513,0.7727272727272727
1.5001250104175348,0.7580645161290323
1.5101258438203184,0.7727272727272727
1.520126677223102,0.7727272727272727
1.5301275106258856,0.7690615835777126
1.540128344028669,0.7690615835777126
1.5501291774314527,0.7739491691104594
1.5601300108342362,0.7641739980449658
1.5701308442370199,0.7812805474095796
1.5801316776398033,0.7763929618768328
1.590132511042587,0.771505376344086
1.6001333444453705,0.7739491691104594
1.6101341778481542,0.7690615835777126
1.6201350112509376,0.7556207233626588
1.6301358446537213,0.7641739980449658
1.6401366780565048,0.759286412512219
1.6501375114592884,0.771505376344086
1.660138344862072,0.7605083088954057
1.6701391782648556,0.7641739980449658
1.680140011667639,0.7739491691104594
1.6901408450704227,0.7653958944281525
1.7001416784732062,0.7641739980449658
1.7101425118759896,0.759286412512219
1.7201433452787733,0.7641739980449658
1.7301441786815568,0.7812805474095796
1.7401450120843405,0.7873900293255132
1.750145845487124,0.8057184750733137
1.7601466788899076,0.8203812316715542
1.770147512292691,0.7996089931573802
1.7801483456954748,0.7861681329423265
1.7901491790982582,0.7886119257086999
1.800150012501042,0.750733137829912
1.8101508459038254,0.7556207233626588
1.820151679306609,0.7678396871945259
1.8301525127093925,0.771505376344086
1.8401533461121762,0.771505376344086
1.8501541795149596,0.7690615835777126
1.8601550129177433,0.7641739980449658
1.8701558463205268,0.7739491691104594
1.8801566797233105,0.7605083088954057
1.890157513126094,0.7727272727272727
1.9001583465288776,0.7678396871945259
1.910159179931661,0.771505376344086
1.9201600133344447,0.7812805474095796
1.9301608467372282,0.7788367546432062
1.9401616801400117,0.7641739980449658
1.9501625135427954,0.7690615835777126
1.9601633469455788,0.7690615835777126
1.9701641803483625,0.7825024437927663
1.980165013751146,0.7776148582600195
1.9901658471539296,0.7825024437927663
2.0001666805567133,0.7812805474095796
2.0101675139594968,0.7788367546432062
2.0201683473622802,0.7751710654936461
2.0301691807650637,0.7739491691104594
2.0401700141678476,0.7739491691104594
2.050170847570631,0.783724340175953
2.0601716809734145,0.7825024437927663
2.070172514376198,0.79227761485826
2.080173347778982,0.8008308895405669
2.0901741811817653,0.7898338220918866
2.100175014584549,0.7886119257086999
2.1101758479873323,0.7934995112414467
2.120176681390116,0.7886119257086999
2.1301775147928996,0.8008308895405669
2.140178348195683,0.7959433040078201
2.1501791815984665,0.7947214076246334
2.16018001500125,0.7910557184750733
2.170180848404034,0.7751710654936461
2.1801816818068174,0.7739491691104594
2.190182515209601,0.7739491691104594
2.2001833486123843,0.7739491691104594
2.210184182015168,0.7763929618768328
2.2201850154179517,0.7727272727272727
2.230185848820735,0.771505376344086
2.2401866822235186,0.759286412512219
2.2501875156263025,0.7653958944281525
2.260188349029086,0.7653958944281525
2.2701891824318694,0.759286412512219
2.280190015834653,0.7629521016617791
2.2901908492374368,0.7678396871945259
2.3001916826402202,0.7812805474095796
2.3101925160430037,0.771505376344086
2.320193349445787,0.7641739980449658
2.330194182848571,0.7556207233626588
2.3401950162513545,0.7641739980449658
2.350195849654138,0.759286412512219
2.3601966830569214,0.7617302052785924
2.370197516459705,0.7776148582600195
2.380198349862489,0.7653958944281525
2.3901991832652723,0.771505376344086
2.4002000166680557,0.7641739980449658
2.410200850070839,0.7556207233626588
2.420201683473623,0.7653958944281525
2.4302025168764065,0.7690615835777126
2.44020335027919,0.771505376344086
2.4502041836819735,0.7678396871945259
2.4602050170847574,0.7629521016617791
2.470205850487541,0.7617302052785924
2.4802066838903243,0.7641739980449658
2.4902075172931077,0.7653958944281525
2.5002083506958916,0.7653958944281525
2.510209184098675,0.7556207233626588
2.5202100175014586,0.7653958944281525
2.530210850904242,0.7666177908113392
2.540211684307026,0.771505376344086
2.5502125177098094,0.771505376344086
2.560213351112593,0.7653958944281525
2.5702141845153763,0.7556207233626588
2.5802150179181598,0.7641739980449658
2.5902158513209437,0.759286412512219
2.600216684723727,0.771505376344086
2.6102175181265106,0.7678396871945259
2.620218351529294,0.7629521016617791
2.630219184932078,0.7641739980449658
2.6402200183348614,0.7641739980449658
2.650220851737645,0.7653958944281525
2.6602216851404283,0.7641739980449658
2.6702225185432122,0.759286412512219
2.6802233519459957,0.7641739980449658
2.690224185348779,0.7678396871945259
2.7002250187515626,0.771505376344086
2.7102258521543465,0.771505376344086
2.72022668555713,0.7641739980449658
2.7302275189599134,0.759286412512219
2.740228352362697,0.7495112414467253
2.750229185765481,0.7739491691104594
2.7602300191682643,0.7678396871945259
2.7702308525710477,0.7751710654936461
2.780231685973831,0.771505376344086
2.7902325193766147,0.7702834799608993
2.8002333527793986,0.7690615835777126
2.810234186182182,0.7690615835777126
2.8202350195849655,0.7641739980449658
2.830235852987749,0.7653958944281525
2.840236686390533,0.7678396871945259
2.8502375197933163,0.771505376344086
2.8602383531960998,0.7641739980449658
2.870239186598883,0.7556207233626588
2.880240020001667,0.7543988269794721
2.8902408534044506,0.759286412512219
2.900241686807234,0.7556207233626588
2.9102425202100175,0.7617302052785924
2.9202433536128014,0.7666177908113392
2.930244187015585,0.771505376344086
2.9402450204183683,0.771505376344086
2.950245853821152,0.7653958944281525
2.9602466872239357,0.7605083088954057
2.970247520626719,0.7641739980449658
2.9802483540295026,0.7751710654936461
2.990249187432286,0.8106060606060606
3.0002500208350695,0.7971652003910068
3.0102508542378534,0.8008308895405669
3.020251687640637,0.7934995112414467
3.0302525210434204,0.7886119257086999
3.040253354446204,0.7702834799608993
3.0502541878489877,0.7543988269794721
3.060255021251771,0.7543988269794721
3.0702558546545546,0.771505376344086
3.080256688057338,0.7678396871945259
3.090257521460122,0.771505376344086
3.1002583548629055,0.771505376344086
3.110259188265689,0.7641739980449658
3.1202600216684724,0.7641739980449658
3.1302608550712563,0.7690615835777126
3.1402616884740397,0.7641739980449658
3.150262521876823,0.771505376344086
3.1602633552796067,0.7580645161290323
3.1702641886823906,0.7812805474095796
3.180265022085174,0.7739491691104594
3.1902658554879575,0.7641739980449658
3.200266688890741,0.7605083088954057
3.2102675222935244,0.7702834799608993
3.2202683556963083,0.7739491691104594
3.2302691890990918,0.771505376344086
3.2402700225018752,0.7678396871945259
3.2502708559046587,0.7727272727272727
3.2602716893074426,0.783724340175953
3.270272522710226,0.7739491691104594
3.2802733561130095,0.7739491691104594
3.290274189515793,0.7861681329423265
3.300275022918577,0.7641739980449658
3.3102758563213603,0.7849462365591398
3.320276689724144,0.7959433040078201
3.3302775231269273,0.7910557184750733
3.340278356529711,0.7910557184750733
3.3502791899324946,0.7886119257086999
3.360280023335278,0.7886119257086999
3.3702808567380615,0.7934995112414467
3.3802816901408455,0.7886119257086999
3.390282523543629,0.79227761485826
3.4002833569464124,0.7873900293255132
3.410284190349196,0.7825024437927663
3.4202850237519793,0.7910557184750733
3.430285857154763,0.7739491691104594
3.4402866905575467,0.7653958944281525
3.45028752396033,0.7788367546432062
3.4602883573631136,0.7641739980449658
3.4702891907658975,0.771505376344086
3.480290024168681,0.7678396871945259
3.4902908575714644,0.7617302052785924
3.500291690974248,0.7653958944281525
3.5102925243770318,0.7543988269794721
3.5202933577798152,0.7543988269794721
3.5302941911825987,0.7641739980449658
3.540295024585382,0.7543988269794721
3.550295857988166,0.771505376344086
3.5602966913909495,0.7580645161290323
3.570297524793733,0.7617302052785924
3.5802983581965164,0.7617302052785924
3.5902991915993003,0.759286412512219
3.600300025002084,0.7556207233626588
3.6103008584048673,0.7556207233626588
3.6203016918076507,0.7556207233626588
3.630302525210434,0.771505376344086
3.640303358613218,0.7605083088954057
3.6503041920160015,0.7617302052785924
3.660305025418785,0.7641739980449658
3.6703058588215685,0.7641739980449658
3.6803066922243524,0.7690615835777126
3.690307525627136,0.759286412512219
3.7003083590299193,0.7543988269794721
3.7103091924327027,0.7641739980449658
3.7203100258354866,0.7580645161290323
3.73031085923827,0.7617302052785924
3.7403116926410536,0.771505376344086
3.750312526043837,0.7543988269794721
3.760313359446621,0.7543988269794721
3.7703141928494044,0.7556207233626588
3.780315026252188,0.7617302052785924
3.7903158596549713,0.7678396871945259
3.800316693057755,0.7617302052785924
3.8103175264605387,0.7629521016617791
3.820318359863322,0.7641739980449658
3.8303191932661056,0.7605083088954057
3.8403200266688895,0.759286412512219
3.850320860071673,0.7543988269794721
3.8603216934744564,0.7617302052785924
3.87032252687724,0.7580645161290323
3.8803233602800233,0.7629521016617791
3.8903241936828072,0.7629521016617791
3.9003250270855907,0.759286412512219
3.910325860488374,0.750733137829912
3.9203266938911576,0.7543988269794721
3.9303275272939415,0.7605083088954057
3.940328360696725,0.7641739980449658
3.9503291940995084,0.7580645161290323
3.960330027502292,0.771505376344086
3.970330860905076,0.7617302052785924
3.9803316943078593,0.7543988269794721
3.9903325277106427,0.7605083088954057
4.000333361113427,0.7605083088954057
4.01033419451621,0.7495112414467253
4.0203350279189936,0.7629521016617791
4.0303358613217775,0.7678396871945259
4.0403366947245605,0.7653958944281525
4.050337528127344,0.771505376344086
4.060338361530127,0.7641739980449658
4.070339194932911,0.7543988269794721
4.080340028335695,0.7653958944281525
4.090340861738478,0.759286412512219
4.100341695141262,0.7629521016617791
4.110342528544045,0.7580645161290323
4.120343361946829,0.7617302052785924
4.130344195349613,0.7617302052785924
4.140345028752396,0.759286412512219
4.15034586215518,0.7495112414467253
4.160346695557964,0.759286412512219
4.170347528960747,0.750733137829912
4.180348362363531,0.7519550342130987
4.190349195766314,0.7580645161290323
4.200350029169098,0.7531769305962854
4.2103508625718815,0.7617302052785924
4.2203516959746645,0.7641739980449658
4.230352529377448,0.7702834799608993
4.240353362780232,0.7898338220918866
4.250354196183015,0.7898338220918866
4.260355029585799,0.8057184750733137
4.270355862988582,0.7776148582600195
4.280356696391366,0.8008308895405669
4.29035752979415,0.7727272727272727
4.300358363196933,0.7348484848484849
4.310359196599717,0.7495112414467253
4.3203600300025,0.759286412512219
4.330360863405284,0.7556207233626588
4.340361696808068,0.7641739980449658
4.350362530210851,0.7580645161290323
4.360363363613635,0.7519550342130987
4.370364197016419,0.7641739980449658
4.380365030419202,0.759286412512219
4.390365863821986,0.7543988269794721
4.400366697224769,0.7556207233626588
4.4103675306275525,0.7543988269794721
4.420368364030336,0.7617302052785924
4.430369197433119,0.7580645161290323
4.440370030835903,0.771505376344086
4.450370864238687,0.7727272727272727
4.46037169764147,0.7739491691104594
4.470372531044254,0.7641739980449658
4.480373364447037,0.7605083088954057
4.490374197849821,0.7605083088954057
4.500375031252605,0.7812805474095796
4.510375864655388,0.7776148582600195
4.520376698058172,0.7653958944281525
4.530377531460955,0.771505376344086
4.540378364863739,0.7653958944281525
4.550379198266523,0.7690615835777126
4.560380031669306,0.7788367546432062
4.57038086507209,0.7886119257086999
4.5803816984748735,0.7910557184750733
4.5903825318776565,0.7776148582600195
4.6003833652804405,0.7825024437927663
4.6103841986832235,0.7910557184750733
4.620385032086007,0.7861681329423265
4.630385865488791,0.7739491691104594
4.640386698891574,0.7702834799608993
4.650387532294358,0.7812805474095796
4.660388365697142,0.7776148582600195
4.670389199099925,0.771505376344086
4.680390032502709,0.7812805474095796
4.690390865905492,0.7641739980449658
4.700391699308276,0.7543988269794721
4.71039253271106,0.759286412512219
4.720393366113843,0.750733137829912
4.730394199516627,0.7641739980449658
4.74039503291941,0.7568426197458455
4.750395866322194,0.7617302052785924
4.760396699724978,0.7617302052785924
4.770397533127761,0.7543988269794721
4.7803983665305445,0.7495112414467253
4.790399199933328,0.750733137829912
4.800400033336111,0.7556207233626588
4.810400866738895,0.7556207233626588
4.820401700141678,0.7482893450635386
4.830402533544462,0.7617302052785924
4.840403366947246,0.7641739980449658
4.850404200350029,0.7543988269794721
4.860405033752813,0.7495112414467253
4.870405867155597,0.7543988269794721
4.88040670055838,0.7495112414467253
4.890407533961164,0.7617302052785924
4.900408367363947,0.7580645161290323
4.910409200766731,0.7519550342130987
4.920410034169515,0.7556207233626588
4.930410867572298,0.759286412512219
4.940411700975082,0.7556207233626588
4.950412534377865,0.7543988269794721
4.960413367780649,0.750733137829912
4.9704142011834325,0.7556207233626588
4.9804150345862155,0.7580645161290323
4.990415867988999,0.7617302052785924
5.000416701391783,0.7653958944281525
5.010417534794566,0.7543988269794721
5.02041836819735,0.7495112414467253
5.030419201600133,0.7641739980449658
5.040420035002917,0.7495112414467253
5.050420868405701,0.7629521016617791
5.060421701808484,0.7580645161290323
5.070422535211268,0.7531769305962854
5.080423368614052,0.7641739980449658
5.090424202016835,0.7556207233626588
5.100425035419619,0.7495112414467253
5.110425868822402,0.7543988269794721
5.120426702225186,0.7495112414467253
5.13042753562797,0.7556207233626588
5.140428369030753,0.750733137829912
5.1504292024335365,0.7641739980449658
5.1604300358363195,0.7617302052785924
5.1704308692391034,0.7543988269794721
5.180431702641887,0.7543988269794721
5.19043253604467,0.7605083088954057
5.200433369447454,0.750733137829912
5.210434202850238,0.7617302052785924
5.220435036253021,0.7617302052785924
5.230435869655805,0.7653958944281525
5.240436703058588,0.7543988269794721
5.250437536461372,0.7543988269794721
5.260438369864156,0.7605083088954057
5.270439203266939,0.759286412512219
5.280440036669723,0.7653958944281525
5.290440870072507,0.7580645161290323
5.30044170347529,0.7617302052785924
5.310442536878074,0.7641739980449658
5.320443370280857,0.759286412512219
5.330444203683641,0.750733137829912
5.3404450370864245,0.759286412512219
5.3504458704892075,0.7495112414467253
5.360446703891991,0.7580645161290323
5.370447537294774,0.7531769305962854
5.380448370697558,0.7617302052785924
5.390449204100342,0.7495112414467253
5.400450037503125,0.7543988269794721
5.410450870905909,0.7556207233626588
5.420451704308693,0.759286412512219
5.430452537711476,0.7825024437927663
5.44045337111426,0.7971652003910068
5.450454204517043,0.8057184750733137
5.460455037919827,0.8057184750733137
5.470455871322611,0.7788367546432062
5.480456704725394,0.7886119257086999
5.490457538128178,0.7495112414467253
5.500458371530962,0.7360703812316716
5.510459204933745,0.7617302052785924
5.5204600383365285,0.7580645161290323
5.530460871739312,0.7617302052785924
5.5404617051420955,0.7617302052785924
5.550462538544879,0.7641739980449658
5.560463371947662,0.759286412512219
5.570464205350446,0.7556207233626588
5.580465038753229,0.7495112414467253
5.590465872156013,0.7617302052785924
5.600466705558797,0.7666177908113392
5.61046753896158,0.771505376344086
5.620468372364364,0.771505376344086
5.630469205767148,0.7543988269794721
5.640470039169931,0.750733137829912
5.650470872572715,0.7605083088954057
5.660471705975498,0.759286412512219
5.670472539378282,0.771505376344086
5.680473372781066,0.7678396871945259
5.690474206183849,0.7727272727272727
5.700475039586633,0.771505376344086
5.7104758729894165,0.7653958944281525
5.7204767063921995,0.7653958944281525
5.730477539794983,0.7690615835777126
5.740478373197766,0.7702834799608993
5.75047920660055,0.7727272727272727
5.760480040003334,0.7825024437927663
5.770480873406117,0.7849462365591398
5.780481706808901,0.7910557184750733
5.790482540211684,0.7739491691104594
5.800483373614468,0.7800586510263929
5.810484207017252,0.7886119257086999
5.820485040420035,0.7886119257086999
5.830485873822819,0.7849462365591398
5.840486707225603,0.7873900293255132
5.850487540628386,0.7812805474095796
5.86048837403117,0.7812805474095796
5.870489207433953,0.7739491691104594
5.880490040836737,0.7739491691104594
5.890490874239521,0.7641739980449658
5.900491707642304,0.7641739980449658
5.9104925410450875,0.7617302052785924
5.920493374447871,0.7580645161290323
5.930494207850654,0.771505376344086
5.940495041253438,0.7617302052785924
5.950495874656221,0.7543988269794721
5.960496708059005,0.7543988269794721
5.970497541461789,0.7641739980449658
5.980498374864572,0.7556207233626588
5.990499208267356,0.7617302052785924
6.000500041670139,0.7580645161290323
6.010500875072923,0.7556207233626588
6.020501708475707,0.771505376344086
6.03050254187849,0.7543988269794721
6.040503375281274,0.7470674486803519
6.050504208684058,0.7543988269794721
6.060505042086841,0.750733137829912
6.070505875489625,0.7617302052785924
6.080506708892408,0.7580645161290323
6.0905075422951915,0.7556207233626588
6.100508375697975,0.7617302052785924
6.1105092091007585,0.759286412512219
6.120510042503542,0.7543988269794721
6.130510875906326,0.7543988269794721
6.140511709309109,0.7605083088954057
6.150512542711893,0.7629521016617791
6.160513376114676,0.7580645161290323
6.17051420951746,0.7617302052785924
6.180515042920244,0.7556207233626588
6.190515876323027,0.759286412512219
6.200516709725811,0.7495112414467253
6.210517543128594,0.7556207233626588
6.220518376531378,0.7495112414467253
6.230519209934162,0.7617302052785924
6.240520043336945,0.7678396871945259
6.250520876739729,0.7617302052785924
6.260521710142513,0.759286412512219
6.270522543545296,0.750733137829912
6.2805233769480795,0.7556207233626588
6.2905242103508625,0.7543988269794721
6.300525043753646,0.7556207233626588
6.31052587715643,0.7580645161290323
6.320526710559213,0.7519550342130987
6.330527543961997,0.7629521016617791
6.340528377364781,0.759286412512219
6.350529210767564,0.7495112414467253
6.360530044170348,0.759286412512219
6.370530877573131,0.7495112414467253
6.380531710975915,0.7617302052785924
6.390532544378699,0.7580645161290323
6.400533377781482,0.7617302052785924
6.410534211184266,0.7617302052785924
6.420535044587049,0.7543988269794721
6.430535877989833,0.759286412512219
6.440536711392617,0.759286412512219
6.4505375447954,0.759286412512219
6.4605383781981836,0.771505376344086
6.4705392116009675,0.7678396871945259
6.4805400450037505,0.7617302052785924
6.490540878406534,0.771505376344086
6.500541711809317,0.759286412512219
6.510542545212101,0.759286412512219
6.520543378614885,0.7605083088954057
6.530544212017668,0.7495112414467253
6.540545045420452,0.7556207233626588
6.550545878823236,0.7458455522971652
6.560546712226019,0.7617302052785924
6.570547545628803,0.7495112414467253
6.580548379031586,0.7495112414467253
6.59054921243437,0.7543988269794721
6.600550045837154,0.750733137829912
6.610550879239937,0.7556207233626588
6.620551712642721,0.7776148582600195
6.630552546045504,0.7825024437927663
6.640553379448288,0.8057184750733137
6.6505542128510715,0.8032746823069403
6.6605550462538545,0.7788367546432062
6.670555879656638,0.7861681329423265
6.680556713059422,0.7751710654936461
6.690557546462205,0.7458455522971652
6.700558379864989,0.7434017595307918
6.710559213267772,0.7617302052785924
6.720560046670556,0.771505376344086
6.73056088007334,0.759286412512219
6.740561713476123,0.7556207233626588
6.750562546878907,0.7641739980449658
6.760563380281691,0.7543988269794721
6.770564213684474,0.7617302052785924
6.780565047087258,0.7580645161290323
6.790565880490041,0.7617302052785924
6.800566713892825,0.7617302052785924
6.810567547295609,0.759286412512219
6.820568380698392,0.759286412512219
6.830569214101176,0.759286412512219
6.840570047503959,0.759286412512219
6.8505708809067425,0.7678396871945259
6.860571714309526,0.7641739980449658
6.870572547712309,0.771505376344086
6.880573381115093,0.759286412512219
6.890574214517877,0.7556207233626588
6.90057504792066,0.7739491691104594
6.910575881323444,0.7690615835777126
6.920576714726227,0.7727272727272727
6.930577548129011,0.7702834799608993
6.940578381531795,0.7812805474095796
6.950579214934578,0.7910557184750733
6.960580048337362,0.7788367546432062
6.970580881740146,0.7788367546432062
6.980581715142929,0.7739491691104594
6.990582548545713,0.7788367546432062
7.000583381948496,0.7910557184750733
7.01058421535128,0.7825024437927663
7.0205850487540635,0.7910557184750733
7.0305858821568465,0.7812805474095796
7.0405867155596304,0.7702834799608993
7.0505875489624135,0.7641739980449658
7.060588382365197,0.7653958944281525
7.070589215767981,0.759286412512219
7.080590049170764,0.7653958944281525
7.090590882573548,0.7678396871945259
7.100591715976332,0.7629521016617791
7.110592549379115,0.7617302052785924
7.120593382781899,0.7556207233626588
7.130594216184682,0.7641739980449658
7.140595049587466,0.7495112414467253
7.15059588299025,0.7458455522971652
7.160596716393033,0.7580645161290323
7.170597549795817,0.7629521016617791
7.180598383198601,0.7531769305962854
7.190599216601384,0.7556207233626588
7.200600050004168,0.7495112414467253
7.210600883406951,0.759286412512219
7.2206017168097345,0.7495112414467253
7.230602550212518,0.7519550342130987
7.240603383615301,0.7482893450635386
7.250604217018085,0.7617302052785924
7.260605050420868,0.7617302052785924
7.270605883823652,0.7641739980449658
7.280606717226436,0.750733137829912
7.290607550629219,0.7605083088954057
7.300608384032003,0.7495112414467253
7.310609217434787,0.7617302052785924
7.32061005083757,0.7580645161290323
7.330610884240354,0.7617302052785924
7.340611717643137,0.7617302052785924
7.350612551045921,0.7543988269794721
7.360613384448705,0.759286412512219
7.370614217851488,0.7543988269794721
7.380615051254272,0.750733137829912
7.3906158846570555,0.7617302052785924
7.400616718059839,0.750733137829912
7.4106175514626225,0.7531769305962854
7.4206183848654055,0.7556207233626588
7.430619218268189,0.7543988269794721
7.440620051670973,0.7495112414467253
7.450620885073756,0.7605083088954057
7.46062171847654,0.7495112414467253
7.470622551879323,0.7617302052785924
7.480623385282107,0.7580645161290323
7.490624218684891,0.7519550342130987
7.500625052087674,0.7617302052785924
7.510625885490458,0.759286412512219
7.520626718893242,0.7495112414467253
7.530627552296025,0.7543988269794721
7.540628385698809,0.750733137829912
7.550629219101592,0.7617302052785924
7.560630052504376,0.750733137829912
7.57063088590716,0.7543988269794721
7.580631719309943,0.7653958944281525
7.5906325527127265,0.7495112414467253
7.60063338611551,0.7543988269794721
7.610634219518293,0.7495112414467253
7.620635052921077,0.7531769305962854
7.63063588632386,0.7580645161290323
7.640636719726644,0.7617302052785924
7.650637553129428,0.771505376344086
7.660638386532211,0.7543988269794721
7.670639219934995,0.7543988269794721
7.680640053337779,0.7543988269794721
7.690640886740562,0.7543988269794721
7.700641720143346,0.7446236559139785
7.710642553546129,0.7580645161290323
7.720643386948913,0.7519550342130987
7.730644220351697,0.7617302052785924
7.74064505375448,0.7470674486803519
7.750645887157264,0.750733137829912
7.760646720560047,0.7495112414467253
7.770647553962831,0.7543988269794721
7.7806483873656145,0.7519550342130987
7.7906492207683975,0.7458455522971652
7.800650054171181,0.7519550342130987
7.810650887573965,0.7617302052785924
7.820651720976748,0.7788367546432062
7.830652554379532,0.7886119257086999
7.840653387782315,0.7898338220918866
7.850654221185099,0.7898338220918866
7.860655054587883,0.7910557184750733
7.870655887990666,0.7849462365591398
7.88065672139345,0.7617302052785924
7.890657554796234,0.7519550342130987
7.900658388199017,0.7495112414467253
7.910659221601801,0.7495112414467253
7.920660055004584,0.7543988269794721
7.930660888407368,0.750733137829912
7.940661721810152,0.7617302052785924
7.950662555212935,0.7580645161290323
7.9606633886157185,0.7617302052785924
7.9706642220185016,0.7617302052785924
7.9806650554212855,0.7543988269794721
7.990665888824069,0.7495112414467253
8.000666722226853,0.759286412512219
8.010667555629636,0.759286412512219
8.02066838903242,0.7531769305962854
8.030669222435204,0.7580645161290323
8.040670055837987,0.7617302052785924
8.05067088924077,0.7653958944281525
8.060671722643555,0.7605083088954057
8.070672556046338,0.7690615835777126
8.080673389449121,0.759286412512219
8.090674222851904,0.7641739980449658
8.100675056254689,0.771505376344086
8.110675889657472,0.7678396871945259
8.120676723060255,0.771505376344086
8.13067755646304,0.7751710654936461
8.140678389865823,0.7739491691104594
8.150679223268606,0.7690615835777126
8.16068005667139,0.7751710654936461
8.170680890074173,0.7690615835777126
8.180681723476956,0.7910557184750733
8.190682556879741,0.7825024437927663
8.200683390282524,0.7812805474095796
8.210684223685307,0.783724340175953
8.22068505708809,0.7886119257086999
8.230685890490875,0.7751710654936461
8.240686723893658,0.7690615835777126
8.250687557296441,0.7788367546432062
8.260688390699226,0.771505376344086
8.270689224102009,0.7678396871945259
8.280690057504792,0.771505376344086
8.290690890907577,0.7641739980449658
8.30069172431036,0.7543988269794721
8.310692557713143,0.759286412512219
8.320693391115928,0.7690615835777126
8.33069422451871,0.7495112414467253
8.340695057921494,0.7617302052785924
8.350695891324277,0.7580645161290323
8.360696724727061,0.7543988269794721
8.370697558129844,0.771505376344086
8.380698391532627,0.759286412512219
8.390699224935412,0.7495112414467253
8.400700058338195,0.759286412512219
8.410700891740978,0.7543988269794721
8.420701725143763,0.7519550342130987
8.430702558546546,0.7482893450635386
8.440703391949329,0.7556207233626588
8.450704225352114,0.7641739980449658
8.460705058754897,0.7543988269794721
8.47070589215768,0.759286412512219
8.480706725560465,0.759286412512219
8.490707558963248,0.7495112414467253
8.50070839236603,0.7629521016617791
8.510709225768814,0.7580645161290323
8.520710059171599,0.7617302052785924
8.530710892574382,0.7617302052785924
8.540711725977165,0.759286412512219
8.55071255937995,0.7470674486803519
8.560713392782732,0.759286412512219
8.570714226185515,0.7543988269794721
8.5807150595883,0.7531769305962854
8.590715892991083,0.7580645161290323
8.600716726393866,0.7531769305962854
8.610717559796651,0.7617302052785924
8.620718393199434,0.759286412512219
8.630719226602217,0.750733137829912
8.640720060005,0.7495112414467253
8.650720893407785,0.7470674486803519
8.660721726810568,0.7556207233626588
8.67072256021335,0.7580645161290323
8.680723393616136,0.7519550342130987
8.690724227018919,0.7617302052785924
8.700725060421702,0.7543988269794721
8.710725893824486,0.759286412512219
8.72072672722727,0.7543988269794721
8.730727560630053,0.7617302052785924
8.740728394032837,0.7580645161290323
8.75072922743562,0.7531769305962854
8.760730060838403,0.7653958944281525
8.770730894241186,0.7495112414467253
8.780731727643971,0.7543988269794721
8.790732561046754,0.759286412512219
8.800733394449537,0.7641739980449658
8.810734227852322,0.771505376344086
8.820735061255105,0.7678396871945259
8.830735894657888,0.7617302052785924
8.840736728060673,0.7543988269794721
8.850737561463456,0.750733137829912
8.860738394866239,0.7470674486803519
8.870739228269024,0.7495112414467253
8.880740061671807,0.7556207233626588
8.89074089507459,0.7458455522971652
8.900741728477374,0.7519550342130987
8.910742561880157,0.7543988269794721
8.92074339528294,0.7495112414467253
8.930744228685723,0.7543988269794721
8.940745062088508,0.759286412512219
8.950745895491291,0.759286412512219
8.960746728894074,0.7617302052785924
8.970747562296859,0.804496578690127
8.980748395699642,0.8057184750733137
8.990749229102425,0.8106060606060606
9.00075006250521,0.7788367546432062
9.010750895907993,0.7751710654936461
9.020751729310776,0.7641739980449658
9.03075256271356,0.7348484848484849
9.040753396116344,0.7421798631476051
9.050754229519127,0.7482893450635386
9.06075506292191,0.7531769305962854
9.070755896324695,0.7617302052785924
9.080756729727478,0.759286412512219
9.09075756313026,0.7495112414467253
9.100758396533045,0.759286412512219
9.110759229935828,0.750733137829912
9.120760063338611,0.7629521016617791
9.130760896741396,0.7678396871945259
9.14076173014418,0.7617302052785924
9.150762563546962,0.7617302052785924
9.160763396949747,0.759286412512219
9.17076423035253,0.7543988269794721
9.180765063755313,0.7641739980449658
9.190765897158096,0.7543988269794721
9.200766730560881,0.7556207233626588
9.210767563963664,0.7580645161290323
9.220768397366447,0.771505376344086
9.230769230769232,0.7812805474095796
9.240770064172015,0.759286412512219
9.250770897574798,0.7605083088954057
9.260771730977583,0.7739491691104594
9.270772564380366,0.7812805474095796
9.280773397783149,0.7776148582600195
9.290774231185933,0.771505376344086
9.300775064588716,0.7812805474095796
9.3107758979915,0.7739491691104594
9.320776731394284,0.7739491691104594
9.330777564797067,0.7898338220918866
9.34077839819985,0.7702834799608993
9.350779231602633,0.7910557184750733
9.360780065005418,0.7776148582600195
9.370780898408201,0.7812805474095796
9.380781731810984,0.7812805474095796
9.390782565213769,0.7788367546432062
9.400783398616552,0.7702834799608993
9.410784232019335,0.759286412512219
9.42078506542212,0.759286412512219
9.430785898824903,0.7556207233626588
9.440786732227686,0.7580645161290323
9.45078756563047,0.7629521016617791
9.460788399033254,0.7641739980449658
9.470789232436037,0.759286412512219
9.48079006583882,0.7690615835777126
9.490790899241604,0.750733137829912
9.500791732644387,0.7495112414467253
9.51079256604717,0.7617302052785924
9.520793399449955,0.750733137829912
9.530794232852738,0.7519550342130987
9.540795066255521,0.7543988269794721
9.550795899658306,0.7543988269794721
9.560796733061089,0.7495112414467253
9.570797566463872,0.7495112414467253
9.580798399866657,0.7397360703812317
9.59079923326944,0.7519550342130987
9.600800066672223,0.7580645161290323
9.610800900075006,0.7617302052785924
9.62080173347779,0.7617302052785924
9.630802566880574,0.7556207233626588
9.640803400283357,0.7495112414467253
9.650804233686141,0.7543988269794721
9.660805067088925,0.7495112414467253
9.670805900491708,0.7617302052785924
9.680806733894492,0.7580645161290323
9.690807567297275,0.7519550342130987
9.700808400700058,0.7543988269794721
9.710809234102843,0.7543988269794721
9.720810067505626,0.7556207233626588
9.73081090090841,0.7543988269794721
9.740811734311194,0.7495112414467253
9.750812567713977,0.7617302052785924
9.76081340111676,0.7605083088954057
9.770814234519543,0.7519550342130987
9.780815067922328,0.7617302052785924
9.79081590132511,0.759286412512219
9.800816734727894,0.7495112414467253
9.810817568130679,0.7495112414467253
9.820818401533462,0.750733137829912
9.830819234936245,0.7519550342130987
9.84082006833903,0.7580645161290323
9.850820901741812,0.7617302052785924
9.860821735144595,0.7446236559139785
9.87082256854738,0.750733137829912
9.880823401950163,0.7470674486803519
9.890824235352946,0.7543988269794721
9.90082506875573,0.750733137829912
9.910825902158514,0.7617302052785924
9.920826735561297,0.7580645161290323
9.93082756896408,0.7617302052785924
9.940828402366865,0.7653958944281525
9.950829235769648,0.7641739980449658
9.960830069172431,0.759286412512219
9.970830902575216,0.7495112414467253
9.980831735977999,0.750733137829912
9.990832569380782,0.7519550342130987
10.000833402783567,0.7580645161290323
10.01083423618635,0.7556207233626588
10.020835069589133,0.7617302052785924
10.030835902991916,0.7470674486803519
10.0408367363947,0.750733137829912
10.050837569797483,0.7543988269794721
10.060838403200266,0.7495112414467253
10.070839236603051,0.7458455522971652
10.080840070005834,0.7580645161290323
10.090840903408617,0.7617302052785924
10.100841736811402,0.771505376344086
10.110842570214185,0.7886119257086999
10.120843403616968,0.7886119257086999
10.130844237019753,0.7886119257086999
10.140845070422536,0.7702834799608993
10.150845903825319,0.7812805474095796
10.160846737228104,0.7678396871945259
10.170847570630887,0.7421798631476051
10.18084840403367,0.7519550342130987
10.190849237436453,0.7495112414467253
10.200850070839238,0.7470674486803519
10.21085090424202,0.7543988269794721
10.220851737644804,0.7495112414467253
10.230852571047588,0.7519550342130987
10.240853404450371,0.7580645161290323
10.250854237853154,0.7543988269794721
10.26085507125594,0.7617302052785924
10.270855904658722,0.7653958944281525
10.280856738061505,0.7495112414467253
10.29085757146429,0.7543988269794721
10.300858404867073,0.7543988269794721
10.310859238269856,0.7629521016617791
10.320860071672639,0.7482893450635386
10.330860905075424,0.771505376344086
10.340861738478207,0.7617302052785924
10.35086257188099,0.7495112414467253
10.360863405283775,0.750733137829912
10.370864238686558,0.759286412512219
10.38086507208934,0.7556207233626588
10.390865905492126,0.771505376344086
10.400866738894909,0.7678396871945259
10.410867572297692,0.7617302052785924
10.420868405700476,0.7739491691104594
10.43086923910326,0.7739491691104594
10.440870072506042,0.7739491691104594
10.450870905908827,0.7788367546432062
10.46087173931161,0.7751710654936461
10.470872572714393,0.7678396871945259
10.480873406117176,0.7812805474095796
10.490874239519961,0.7910557184750733
10.500875072922744,0.7751710654936461
10.510875906325527,0.7751710654936461
10.520876739728312,0.7653958944281525
10.530877573131095,0.7605083088954057
10.540878406533878,0.7727272727272727
10.550879239936663,0.7482893450635386
10.560880073339446,0.7617302052785924
10.570880906742229,0.771505376344086
10.580881740145013,0.7543988269794721
10.590882573547796,0.750733137829912
10.60088340695058,0.7543988269794721
10.610884240353363,0.750733137829912
10.620885073756147,0.7617302052785924
10.63088590715893,0.7458455522971652
10.640886740561713,0.7556207233626588
10.650887573964498,0.7543988269794721
10.660888407367281,0.7495112414467253
10.670889240770064,0.7495112414467253
10.680890074172849,0.7495112414467253
10.690890907575632,0.7360703812316716
10.700891740978415,0.7617302052785924
10.7108925743812,0.7482893450635386
10.720893407783983,0.7617302052785924
10.730894241186766,0.7617302052785924
10.740895074589549,0.7543988269794721
10.750895907992334,0.7495112414467253
10.760896741395117,0.7495112414467253
10.7708975747979,0.759286412512219
10.780898408200684,0.7458455522971652
10.790899241603467,0.7580645161290323
10.80090007500625,0.7531769305962854
10.810900908409035,0.7617302052785924
10.820901741811818,0.7543988269794721
10.830902575214601,0.7495112414467253
10.840903408617386,0.7556207233626588
10.85090424202017,0.7495112414467253
10.860905075422952,0.7617302052785924
10.870905908825737,0.7482893450635386
10.88090674222852,0.7519550342130987
10.890907575631303,0.7519550342130987
10.900908409034086,0.7543988269794721
10.91090924243687,0.7470674486803519
10.920910075839654,0.7495112414467253
10.930910909242437,0.7495112414467253
10.940911742645222,0.7556207233626588
10.950912576048005,0.7580645161290323
10.960913409450788,0.7519550342130987
10.970914242853572,0.7556207233626588
10.980915076256355,0.7543988269794721
10.990915909659138,0.7397360703812317
11.000916743061923,0.7556207233626588
11.010917576464706,0.7495112414467253
11.02091840986749,0.7531769305962854
11.030919243270272,0.7580645161290323
11.040920076673057,0.7458455522971652
11.05092091007584,0.7543988269794721
11.060921743478623,0.7543988269794721
11.070922576881408,0.7495112414467253
11.080923410284191,0.7470674486803519
11.090924243686974,0.7495112414467253
11.100925077089759,0.7653958944281525
11.110925910492542,0.750733137829912
11.120926743895325,0.7519550342130987
11.13092757729811,0.7617302052785924
11.140928410700893,0.7495112414467253
11.150929244103676,0.750733137829912
11.160930077506459,0.7543988269794721
11.170930910909243,0.7470674486803519
11.180931744312026,0.7531769305962854
11.19093257771481,0.750733137829912
11.200933411117594,0.7519550342130987
11.210934244520377,0.7519550342130987
11.22093507792316,0.7495112414467253
11.230935911325945,0.7470674486803519
11.240936744728728,0.7495112414467253
11.250937578131511,0.7495112414467253
11.260938411534296,0.7519550342130987
11.270939244937079,0.7458455522971652
11.280940078339862,0.7519550342130987
11.290940911742647,0.7531769305962854
11.30094174514543,0.759286412512219
11.310942578548213,0.7861681329423265
11.320943411950996,0.7861681329423265
11.33094424535378,0.7812805474095796
11.340945078756564,0.7776148582600195
11.350945912159347,0.7727272727272727
11.360946745562131,0.7519550342130987
11.370947578964914,0.7495112414467253
11.380948412367697,0.7495112414467253
11.390949245770482,0.7397360703812317
11.400950079173265,0.7470674486803519
11.410950912576048,0.7556207233626588
11.420951745978833,0.7458455522971652
11.430952579381616,0.7446236559139785
11.440953412784399,0.7617302052785924
11.450954246187182,0.7495112414467253
11.460955079589967,0.7556207233626588
11.47095591299275,0.7495112414467253
11.480956746395533,0.7617302052785924
11.490957579798318,0.7482893450635386
11.5009584132011,0.7519550342130987
11.510959246603884,0.7519550342130987
11.520960080006668,0.7543988269794721
11.530960913409452,0.7470674486803519
11.540961746812235,0.7495112414467253
11.55096258021502,0.7543988269794721
11.560963413617802,0.7556207233626588
11.570964247020585,0.7580645161290323
11.580965080423368,0.7617302052785924
11.590965913826153,0.7653958944281525
11.600966747228936,0.759286412512219
11.61096758063172,0.7556207233626588
11.620968414034504,0.7690615835777126
11.630969247437287,0.7641739980449658
11.64097008084007,0.771505376344086
11.650970914242855,0.7678396871945259
11.660971747645638,0.7629521016617791
11.67097258104842,0.771505376344086
11.680973414451206,0.7690615835777126
11.690974247853989,0.7641739980449658
11.700975081256772,0.7690615835777126
11.710975914659556,0.7653958944281525
11.72097674806234,0.7617302052785924
11.730977581465122,0.7605083088954057
11.740978414867905,0.7531769305962854
11.75097924827069,0.7617302052785924
11.760980081673473,0.7495112414467253
11.770980915076256,0.7543988269794721
11.780981748479041,0.7495112414467253
11.790982581881824,0.7495112414467253
11.800983415284607,0.7617302052785924
11.810984248687392,0.7434017595307918
11.820985082090175,0.7421798631476051
11.830985915492958,0.7543988269794721
11.840986748895743,0.7397360703812317
11.850987582298526,0.7495112414467253
11.860988415701309,0.7495112414467253
11.870989249104092,0.7397360703812317
11.880990082506877,0.7434017595307918
11.89099091590966,0.7421798631476051
11.900991749312443,0.7543988269794721
11.910992582715227,0.7495112414467253
11.92099341611801,0.7397360703812317
11.930994249520793,0.7495112414467253
11.940995082923578,0.7470674486803519
11.950995916326361,0.7434017595307918
11.960996749729144,0.7482893450635386
11.970997583131929,0.7519550342130987
11.980998416534712,0.7531769305962854
11.990999249937495,0.7470674486803519
12.001000083340278,0.7409579667644184
12.011000916743063,0.7495112414467253
12.021001750145846,0.7495112414467253
12.031002583548629,0.7458455522971652
12.041003416951414,0.7568426197458455
12.051004250354197,0.7421798631476051
12.06100508375698,0.7519550342130987
12.071005917159765,0.7495112414467253
12.081006750562548,0.7470674486803519
12.09100758396533,0.7397360703812317
12.101008417368115,0.7470674486803519
12.111009250770898,0.7421798631476051
12.121010084173681,0.7409579667644184
12.131010917576466,0.7519550342130987
12.14101175097925,0.7458455522971652
12.151012584382032,0.7470674486803519
12.161013417784815,0.7397360703812317
12.1710142511876,0.750733137829912
12.181015084590383,0.7409579667644184
12.191015917993166,0.7434017595307918
12.20101675139595,0.750733137829912
12.211017584798734,0.7519550342130987
12.221018418201517,0.7519550342130987
12.231019251604302,0.7495112414467253
12.241020085007085,0.7397360703812317
12.251020918409868,0.7470674486803519
12.261021751812653,0.7397360703812317
12.271022585215436,0.7519550342130987
12.281023418618219,0.7458455522971652
12.291024252021002,0.7446236559139785
12.301025085423786,0.7543988269794721
12.31102591882657,0.7470674486803519
12.321026752229352,0.7397360703812317
12.331027585632137,0.7495112414467253
12.34102841903492,0.7495112414467253
12.351029252437703,0.7519550342130987
12.361030085840488,0.7458455522971652
12.371030919243271,0.7421798631476051
12.381031752646054,0.7556207233626588
12.391032586048839,0.7495112414467253
12.401033419451622,0.7397360703812317
12.411034252854405,0.7556207233626588
12.421035086257188,0.7470674486803519
12.431035919659973,0.7519550342130987
12.441036753062756,0.7409579667644184
12.451037586465539,0.7421798631476051
12.461038419868324,0.7495112414467253
12.471039253271107,0.7470674486803519
12.48104008667389,0.7495112414467253
12.491040920076674,0.7470674486803519
12.501041753479457,0.7421798631476051
12.51104258688224,0.7434017595307918
12.521043420285025,0.7446236559139785
12.531044253687808,0.7519550342130987
12.541045087090591,0.750733137829912
12.551045920493376,0.7653958944281525
12.561046753896159,0.7739491691104594
12.571047587298942,0.7690615835777126
12.581048420701725,0.7910557184750733
12.59104925410451,0.7776148582600195
12.601050087507293,0.7812805474095796
12.611050920910076,0.7543988269794721
12.62105175431286,0.7495112414467253
12.631052587715644,0.7397360703812317
12.641053421118427,0.7470674486803519
12.651054254521211,0.7397360703812317
12.661055087923994,0.7531769305962854
12.671055921326777,0.7580645161290323
12.681056754729562,0.7519550342130987
12.691057588132345,0.7556207233626588
12.701058421535128,0.7495112414467253
12.711059254937911,0.7409579667644184
12.721060088340696,0.7495112414467253
12.73106092174348,0.7397360703812317
12.741061755146262,0.7617302052785924
12.751062588549047,0.7434017595307918
12.76106342195183,0.7617302052785924
12.771064255354613,0.7519550342130987
12.781065088757398,0.7495112414467253
12.79106592216018,0.7495112414467253
12.801066755562964,0.7543988269794721
12.811067588965749,0.7495112414467253
12.821068422368532,0.7531769305962854
12.831069255771315,0.7580645161290323
12.841070089174098,0.7641739980449658
12.851070922576882,0.7617302052785924
12.861071755979665,0.7605083088954057
12.871072589382448,0.7543988269794721
12.881073422785233,0.759286412512219
12.891074256188016,0.7617302052785924
12.9010750895908,0.7678396871945259
12.911075922993584,0.771505376344086
12.921076756396367,0.7812805474095796
12.93107758979915,0.7653958944281525
12.941078423201935,0.7690615835777126
12.951079256604718,0.7751710654936461
12.961080090007501,0.759286412512219
12.971080923410286,0.7653958944281525
12.981081756813069,0.7666177908113392
12.991082590215852,0.7519550342130987
13.001083423618635,0.7641739980449658
13.01108425702142,0.750733137829912
13.021085090424203,0.7495112414467253
13.031085923826986,0.7495112414467253
13.04108675722977,0.7519550342130987
13.051087590632553,0.7580645161290323
13.061088424035336,0.7519550342130987
13.071089257438121,0.7531769305962854
13.081090090840904,0.7397360703812317
13.091090924243687,0.7397360703812317
13.101091757646472,0.7409579667644184
13.111092591049255,0.7397360703812317
13.121093424452038,0.7519550342130987
13.131094257854821,0.738514173998045
13.141095091257606,0.7434017595307918
13.151095924660389,0.7446236559139785
13.161096758063172,0.7470674486803519
13.171097591465957,0.7495112414467253
13.18109842486874,0.7470674486803519
13.191099258271523,0.7470674486803519
13.201100091674308,0.7421798631476051
13.21110092507709,0.7458455522971652
13.221101758479874,0.7617302052785924
13.231102591882658,0.7519550342130987
13.241103425285441,0.7495112414467253
13.251104258688224,0.7397360703812317
13.261105092091007,0.7397360703812317
13.271105925493792,0.7397360703812317
13.281106758896575,0.7519550342130987
13.291107592299358,0.7458455522971652
13.301108425702143,0.7446236559139785
13.311109259104926,0.7543988269794721
13.321110092507709,0.7495112414467253
13.331110925910494,0.7360703812316716
13.341111759313277,0.7470674486803519
13.35111259271606,0.7495112414467253
13.361113426118845,0.7446236559139785
13.371114259521628,0.7434017595307918
13.38111509292441,0.7519550342130987
13.391115926327195,0.7556207233626588
13.401116759729979,0.7495112414467253
13.411117593132762,0.7495112414467253
13.421118426535545,0.7397360703812317
13.43111925993833,0.7348484848484849
13.441120093341112,0.7519550342130987
13.451120926743895,0.7434017595307918
13.46112176014668,0.7446236559139785
13.471122593549463,0.7495112414467253
13.481123426952246,0.7397360703812317
13.491124260355031,0.7495112414467253
13.501125093757814,0.7348484848484849
13.511125927160597,0.7519550342130987
13.521126760563382,0.7434017595307918
13.531127593966165,0.7421798631476051
13.541128427368948,0.7543988269794721
13.55112926077173,0.7470674486803519
13.561130094174516,0.7470674486803519
13.571130927577299,0.7397360703812317
13.581131760980082,0.7495112414467253
13.591132594382866,0.7458455522971652
13.60113342778565,0.7458455522971652
13.611134261188433,0.7519550342130987
13.621135094591217,0.7617302052785924
13.631135927994,0.7495112414467253
13.641136761396783,0.7495112414467253
13.651137594799568,0.7495112414467253
13.661138428202351,0.7470674486803519
13.671139261605134,0.7421798631476051
13.681140095007917,0.7434017595307918
13.691140928410702,0.7336265884652982
13.701141761813485,0.7519550342130987
13.711142595216268,0.7495112414467253
13.721143428619053,0.7311827956989247
13.731144262021836,0.7470674486803519
13.741145095424619,0.7348484848484849
13.751145928827404,0.7434017595307918
13.761146762230187,0.738514173998045
13.77114759563297,0.7519550342130987
13.781148429035754,0.7519550342130987
13.791149262438537,0.7690615835777126
13.80115009584132,0.7739491691104594
13.811150929244105,0.7886119257086999
13.821151762646888,0.7690615835777126
13.831152596049671,0.771505376344086
13.841153429452454,0.7800586510263929
13.851154262855239,0.7617302052785924
13.861155096258022,0.7360703812316716
13.871155929660805,0.7397360703812317
13.88115676306359,0.7470674486803519
13.891157596466373,0.7495112414467253
13.901158429869156,0.7495112414467253
13.91115926327194,0.7421798631476051
13.921160096674724,0.7568426197458455
13.931160930077507,0.7421798631476051
13.941161763480292,0.7519550342130987
13.951162596883075,0.7495112414467253
13.961163430285858,0.7495112414467253
13.97116426368864,0.7495112414467253
13.981165097091425,0.7495112414467253
13.991165930494208,0.7531769305962854
14.001166763896991,0.750733137829912
14.011167597299776,0.7519550342130987
14.02116843070256,0.7543988269794721
14.031169264105342,0.759286412512219
14.041170097508127,0.7495112414467253
14.05117093091091,0.7495112414467253
14.061171764313693,0.7617302052785924
14.071172597716478,0.7605083088954057
14.081173431119261,0.7617302052785924
14.091174264522044,0.7617302052785924
14.101175097924827,0.7641739980449658
14.111175931327612,0.7543988269794721
14.121176764730395,0.7641739980449658
14.131177598133178,0.7605083088954057
14.141178431535963,0.771505376344086
14.151179264938746,0.7678396871945259
14.161180098341529,0.771505376344086
14.171180931744313,0.7812805474095796
14.181181765147096,0.7690615835777126
14.19118259854988,0.7653958944281525
14.201183431952664,0.7690615835777126
14.211184265355447,0.759286412512219
14.22118509875823,0.7617302052785924
14.231185932161015,0.7568426197458455
14.241186765563798,0.7617302052785924
14.251187598966581,0.7519550342130987
14.261188432369364,0.7397360703812317
14.271189265772149,0.7397360703812317
14.281190099174932,0.7397360703812317
14.291190932577715,0.7470674486803519
14.3011917659805,0.7458455522971652
14.311192599383283,0.738514173998045
14.321193432786066,0.7421798631476051
14.33119426618885,0.7543988269794721
14.341195099591634,0.7495112414467253
14.351195932994417,0.7470674486803519
14.361196766397201,0.7470674486803519
14.371197599799984,0.7397360703812317
14.381198433202767,0.7458455522971652
14.39119926660555,0.7421798631476051
14.401200100008335,0.7543988269794721
14.411200933411118,0.7397360703812317
14.421201766813901,0.7397360703812317
14.431202600216686,0.7397360703812317
14.441203433619469,0.7470674486803519
14.451204267022252,0.7421798631476051
14.461205100425037,0.7482893450635386
14.47120593382782,0.7519550342130987
14.481206767230603,0.7519550342130987
14.491207600633388,0.7470674486803519
14.50120843403617,0.7348484848484849
14.511209267438954,0.7397360703812317
14.521210100841737,0.7397360703812317
14.531210934244521,0.7519550342130987
14.541211767647304,0.7409579667644184
14.551212601050088,0.7446236559139785
14.561213434452872,0.7519550342130987
14.571214267855655,0.7397360703812317
14.581215101258438,0.7397360703812317
14.591215934661223,0.7495112414467253
14.601216768064006,0.7311827956989247
14.61121760146679,0.7458455522971652
14.621218434869574,0.7434017595307918
14.631219268272357,0.7421798631476051
14.64122010167514,0.7519550342130987
14.651220935077925,0.7495112414467253
14.661221768480708,0.7348484848484849
14.67122260188349,0.7397360703812317
14.681223435286274,0.7519550342130987
14.691224268689059,0.7409579667644184
14.701225102091842,0.7458455522971652
14.711225935494625,0.7446236559139785
14.72122676889741,0.7470674486803519
14.731227602300192,0.7397360703812317
14.741228435702975,0.7348484848484849
14.75122926910576,0.7348484848484849
14.761230102508543,0.7458455522971652
14.771230935911326,0.7434017595307918
14.781231769314111,0.7421798631476051
14.791232602716894,0.7519550342130987
14.801233436119677,0.7409579667644184
14.81123426952246,0.7360703812316716
14.821235102925245,0.7397360703812317
14.831235936328028,0.7470674486803519
14.841236769730811,0.7519550342130987
14.851237603133596,0.7458455522971652
14.861238436536379,0.7519550342130987
14.871239269939162,0.7556207233626588
14.881240103341947,0.7397360703812317
14.89124093674473,0.7348484848484849
14.901241770147513,0.7397360703812317
14.911242603550297,0.7360703812316716
14.92124343695308,0.7519550342130987
14.931244270355863,0.738514173998045
14.941245103758646,0.7336265884652982
14.951245937161431,0.7519550342130987
14.961246770564214,0.7470674486803519
14.971247603966997,0.7311827956989247
14.981248437369782,0.7409579667644184
14.991249270772565,0.7397360703812317
15.001250104175348,0.7434017595307918
15.011250937578133,0.7434017595307918
15.021251770980916,0.7519550342130987
15.031252604383699,0.7531769305962854
15.041253437786484,0.7751710654936461
15.051254271189267,0.7751710654936461
15.06125510459205,0.7886119257086999
15.071255937994835,0.7739491691104594
15.081256771397618,0.7727272727272727
15.0912576048004,0.7678396871945259
15.101258438203184,0.7421798631476051
15.111259271605968,0.7470674486803519
15.121260105008751,0.7470674486803519
15.131260938411534,0.7470674486803519
15.14126177181432,0.7360703812316716
15.151262605217102,0.7421798631476051
15.161263438619885,0.7434017595307918
15.17126427202267,0.7446236559139785
15.181265105425453,0.7446236559139785
15.191265938828236,0.7495112414467253
15.20126677223102,0.7360703812316716
15.211267605633804,0.7495112414467253
15.221268439036587,0.7470674486803519
15.23126927243937,0.7531769305962854
15.241270105842155,0.7519550342130987
15.251270939244938,0.7543988269794721
15.26127177264772,0.7543988269794721
15.271272606050506,0.7495112414467253
15.281273439453289,0.7556207233626588
15.291274272856072,0.7495112414467253
15.301275106258856,0.7617302052785924
15.31127593966164,0.7580645161290323
15.321276773064422,0.7617302052785924
15.331277606467207,0.771505376344086
15.34127843986999,0.759286412512219
15.351279273272773,0.7556207233626588
15.361280106675558,0.7641739980449658
15.371280940078341,0.7605083088954057
15.381281773481124,0.771505376344086
15.391282606883907,0.7678396871945259
15.401283440286692,0.771505376344086
15.411284273689475,0.7812805474095796
15.421285107092258,0.7641739980449658
15.431285940495043,0.7653958944281525
15.441286773897826,0.759286412512219
15.451287607300609,0.7543988269794721
15.461288440703393,0.7617302052785924
15.471289274106176,0.7605083088954057
15.48129010750896,0.7519550342130987
15.491290940911744,0.7556207233626588
15.501291774314527,0.7470674486803519
15.51129260771731,0.7470674486803519
15.521293441120093,0.7495112414467253
15.531294274522878,0.7348484848484849
15.541295107925661,0.7421798631476051
15.551295941328444,0.7409579667644184
15.561296774731229,0.7519550342130987
15.571297608134012,0.7421798631476051
15.581298441536795,0.7470674486803519
15.59129927493958,0.7397360703812317
15.601300108342363,0.7397360703812317
15.611300941745146,0.7495112414467253
15.62130177514793,0.7458455522971652
15.631302608550714,0.7434017595307918
15.641303441953497,0.7458455522971652
15.65130427535628,0.7519550342130987
15.661305108759064,0.7360703812316716
15.671305942161847,0.7348484848484849
15.68130677556463,0.7495112414467253
15.691307608967415,0.7397360703812317
15.701308442370198,0.7421798631476051
15.711309275772981,0.7434017595307918
15.721310109175766,0.7446236559139785
15.73131094257855,0.7421798631476051
15.741311775981332,0.7543988269794721
15.751312609384117,0.7311827956989247
15.7613134427869,0.7397360703812317
15.771314276189683,0.7397360703812317
15.781315109592468,0.7421798631476051
15.79131594299525,0.7458455522971652
15.801316776398034,0.7360703812316716
15.811317609800817,0.7519550342130987
15.821318443203602,0.7409579667644184
15.831319276606385,0.7397360703812317
15.841320110009168,0.7470674486803519
15.851320943411952,0.7348484848484849
15.861321776814735,0.7434017595307918
15.871322610217518,0.7409579667644184
15.881323443620303,0.7446236559139785
15.891324277023086,0.7519550342130987
15.90132511042587,0.750733137829912
15.911325943828654,0.7348484848484849
15.921326777231437,0.7397360703812317
15.93132761063422,0.7348484848484849
15.941328444037003,0.7519550342130987
15.951329277439788,0.7409579667644184
15.961330110842571,0.7519550342130987
15.971330944245354,0.7470674486803519
15.981331777648139,0.7397360703812317
15.991332611050922,0.7397360703812317
16.001333444453707,0.7360703812316716
16.011334277856488,0.7434017595307918
16.021335111259273,0.7409579667644184
16.031335944662057,0.7519550342130987
16.04133677806484,0.7519550342130987
16.051337611467623,0.7348484848484849
16.061338444870408,0.7397360703812317
16.07133927827319,0.7495112414467253
16.081340111675974,0.7360703812316716
16.09134094507876,0.7446236559139785
16.10134177848154,0.7519550342130987
16.111342611884325,0.7519550342130987
16.12134344528711,0.7495112414467253
16.13134427868989,0.7495112414467253
16.141345112092676,0.7409579667644184
16.151345945495457,0.7397360703812317
16.161346778898242,0.7421798631476051
16.171347612301027,0.738514173998045
16.181348445703808,0.7324046920821115
16.191349279106593,0.7519550342130987
16.201350112509378,0.7409579667644184
16.21135094591216,0.7348484848484849
16.221351779314944,0.7397360703812317
16.23135261271773,0.729960899315738
16.24135344612051,0.7421798631476051
16.251354279523294,0.7580645161290323
16.26135511292608,0.771505376344086
16.27135594632886,0.7812805474095796
16.281356779731645,0.7886119257086999
16.29135761313443,0.7702834799608993
16.30135844653721,0.7653958944281525
16.311359279939996,0.7690615835777126
16.32136011334278,0.7519550342130987
16.331360946745562,0.7238514173998045
16.341361780148347,0.7446236559139785
16.35136261355113,0.7519550342130987
16.361363446953913,0.7470674486803519
16.371364280356698,0.7495112414467253
16.381365113759482,0.7470674486803519
16.391365947162264,0.7397360703812317
16.40136678056505,0.7421798631476051
16.411367613967833,0.7580645161290323
16.421368447370615,0.7519550342130987
16.4313692807734,0.7531769305962854
16.44137011417618,0.7495112414467253
16.451370947578965,0.7495112414467253
16.46137178098175,0.7495112414467253
16.47137261438453,0.7470674486803519
16.481373447787316,0.7531769305962854
16.4913742811901,0.7458455522971652
16.501375114592882,0.7617302052785924
16.511375947995667,0.7617302052785924
16.521376781398452,0.7556207233626588
16.531377614801233,0.750733137829912
16.541378448204018,0.7470674486803519
16.551379281606803,0.771505376344086
16.561380115009584,0.7580645161290323
16.57138094841237,0.7617302052785924
16.581381781815153,0.771505376344086
16.591382615217935,0.7653958944281525
16.60138344862072,0.7641739980449658
16.611384282023504,0.7653958944281525
16.621385115426285,0.7641739980449658
16.63138594882907,0.7812805474095796
16.641386782231855,0.7763929618768328
16.651387615634636,0.7653958944281525
16.66138844903742,0.7812805474095796
16.671389282440206,0.759286412512219
16.681390115842987,0.7641739980449658
16.691390949245772,0.7543988269794721
16.701391782648553,0.7495112414467253
16.711392616051338,0.7531769305962854
16.721393449454123,0.7434017595307918
16.731394282856904,0.7519550342130987
16.74139511625969,0.7519550342130987
16.751395949662474,0.7495112414467253
16.761396783065255,0.7348484848484849
16.77139761646804,0.7495112414467253
16.781398449870824,0.7397360703812317
16.791399283273606,0.7434017595307918
16.80140011667639,0.738514173998045
16.811400950079175,0.7519550342130987
16.821401783481956,0.7470674486803519
16.83140261688474,0.7397360703812317
16.841403450287526,0.7397360703812317
16.851404283690307,0.7397360703812317
16.861405117093092,0.7421798631476051
16.871405950495877,0.7434017595307918
16.881406783898658,0.7519550342130987
16.891407617301443,0.7519550342130987
16.901408450704228,0.7397360703812317
16.91140928410701,0.7360703812316716
16.921410117509794,0.7397360703812317
16.93141095091258,0.7470674486803519
16.94141178431536,0.7519550342130987
16.951412617718145,0.738514173998045
16.96141345112093,0.7519550342130987
16.97141428452371,0.7519550342130987
16.981415117926495,0.750733137829912
16.991415951329277,0.7470674486803519
17.00141678473206,0.7470674486803519
17.011417618134846,0.7397360703812317
17.021418451537627,0.7421798631476051
17.031419284940412,0.7434017595307918
17.041420118343197,0.7446236559139785
17.05142095174598,0.7421798631476051
17.061421785148763,0.7495112414467253
17.071422618551548,0.7409579667644184
17.08142345195433,0.7360703812316716
17.091424285357114,0.7311827956989247
17.1014251187599,0.7421798631476051
17.11142595216268,0.7568426197458455
17.121426785565465,0.7446236559139785
17.13142761896825,0.7519550342130987
17.14142845237103,0.7348484848484849
17.151429285773816,0.7397360703812317
17.1614301191766,0.7495112414467253
17.17143095257938,0.7348484848484849
17.181431785982166,0.7446236559139785
17.19143261938495,0.738514173998045
17.201433452787732,0.7421798631476051
17.211434286190517,0.7421798631476051
17.221435119593302,0.7495112414467253
17.231435952996083,0.7397360703812317
17.241436786398868,0.7397360703812317
17.251437619801653,0.7348484848484849
17.261438453204434,0.7421798631476051
17.27143928660722,0.7409579667644184
17.28144012001,0.7519550342130987
17.291440953412785,0.7519550342130987
17.30144178681557,0.7348484848484849
17.31144262021835,0.7397360703812317
17.321443453621136,0.7495112414467253
17.33144428702392,0.7470674486803519
17.3414451204267,0.7519550342130987
17.351445953829487,0.7482893450635386
17.36144678723227,0.7434017595307918
17.371447620635053,0.7446236559139785
17.381448454037837,0.7470674486803519
17.391449287440622,0.7409579667644184
17.401450120843403,0.7495112414467253
17.411450954246188,0.7348484848484849
17.421451787648973,0.7421798631476051
17.431452621051754,0.7434017595307918
17.44145345445454,0.7446236559139785
17.451454287857324,0.7519550342130987
17.461455121260105,0.7470674486803519
17.47145595466289,0.7311827956989247
17.481456788065675,0.7397360703812317
17.491457621468456,0.7409579667644184
17.50145845487124,0.7458455522971652
17.511459288274025,0.7458455522971652
17.521460121676807,0.771505376344086
17.53146095507959,0.7812805474095796
17.541461788482373,0.7886119257086999
17.551462621885157,0.7653958944281525
17.561463455287942,0.7690615835777126
17.571464288690724,0.7641739980449658
17.58146512209351,0.7531769305962854
17.591465955496293,0.7262952101661779
17.601466788899074,0.7421798631476051
17.61146762230186,0.7446236559139785
17.621468455704644,0.7495112414467253
17.631469289107425,0.7409579667644184
17.64147012251021,0.7470674486803519
17.651470955912995,0.7397360703812317
17.661471789315776,0.7519550342130987
17.67147262271856,0.7458455522971652
17.681473456121346,0.7519550342130987
17.691474289524127,0.7519550342130987
17.70147512292691,0.7470674486803519
17.711475956329696,0.7495112414467253
17.721476789732478,0.7470674486803519
17.731477623135262,0.7519550342130987
17.741478456538047,0.7434017595307918
17.75147928994083,0.7519550342130987
17.761480123343613,0.7556207233626588
17.771480956746398,0.7495112414467253
17.78148179014918,0.7495112414467253
17.791482623551964,0.7543988269794721
17.80148345695475,0.7543988269794721
17.81148429035753,0.7556207233626588
17.821485123760315,0.7580645161290323
17.831485957163096,0.7617302052785924
17.84148679056588,0.771505376344086
17.851487623968666,0.7605083088954057
17.861488457371447,0.7641739980449658
17.87148929077423,0.7556207233626588
17.881490124177017,0.7690615835777126
17.891490957579798,0.771505376344086
17.901491790982583,0.7678396871945259
17.911492624385367,0.771505376344086
17.92149345778815,0.771505376344086
17.931494291190933,0.7702834799608993
17.941495124593718,0.759286412512219
17.9514959579965,0.7641739980449658
17.961496791399284,0.750733137829912
17.97149762480207,0.7519550342130987
17.98149845820485,0.7458455522971652
17.991499291607635,0.7519550342130987
18.00150012501042,0.7519550342130987
18.0115009584132,0.7397360703812317
18.021501791815986,0.7495112414467253
18.03150262521877,0.7495112414467253
18.041503458621552,0.7360703812316716
18.051504292024337,0.7519550342130987
18.06150512542712,0.7409579667644184
18.071505958829903,0.7421798631476051
18.081506792232688,0.7531769305962854
18.091507625635472,0.7470674486803519
18.101508459038254,0.7348484848484849
18.11150929244104,0.7495112414467253
18.12151012584382,0.7397360703812317
18.131510959246604,0.7421798631476051
18.14151179264939,0.7409579667644184
18.15151262605217,0.7434017595307918
18.161513459454955,0.7519550342130987
18.17151429285774,0.7397360703812317
18.18151512626052,0.7348484848484849
18.191515959663306,0.7495112414467253
18.20151679306609,0.7348484848484849
18.211517626468872,0.7519550342130987
18.221518459871657,0.7458455522971652
18.23151929327444,0.7421798631476051
18.241520126677223,0.7543988269794721
18.251520960080008,0.7397360703812317
18.261521793482792,0.7397360703812317
18.271522626885574,0.7495112414467253
18.28152346028836,0.7434017595307918
18.291524293691143,0.738514173998045
18.301525127093925,0.7446236559139785
18.31152596049671,0.7519550342130987
18.321526793899494,0.7397360703812317
18.331527627302275,0.7470674486803519
18.34152846070506,0.7470674486803519
18.351529294107845,0.7348484848484849
18.361530127510626,0.7446236559139785
18.37153096091341,0.738514173998045
18.381531794316192,0.7519550342130987
18.391532627718977,0.7543988269794721
18.401533461121762,0.7397360703812317
18.411534294524543,0.7397360703812317
18.421535127927328,0.7409579667644184
18.431535961330113,0.7311827956989247
18.441536794732894,0.7421798631476051
18.45153762813568,0.7482893450635386
18.461538461538463,0.7519550342130987
18.471539294941245,0.7434017595307918
18.48154012834403,0.7397360703812317
18.491540961746814,0.7495112414467253
18.501541795149596,0.7397360703812317
18.51154262855238,0.7311827956989247
18.521543461955165,0.7421798631476051
18.531544295357946,0.7434017595307918
18.54154512876073,0.7421798631476051
18.551545962163516,0.7519550342130987
18.561546795566297,0.7495112414467253
18.571547628969082,0.7495112414467253
18.581548462371867,0.7348484848484849
18.591549295774648,0.7519550342130987
18.601550129177433,0.7434017595307918
18.611550962580218,0.7519550342130987
18.621551795983,0.7519550342130987
18.631552629385784,0.7470674486803519
18.64155346278857,0.729960899315738
18.65155429619135,0.7470674486803519
18.661555129594134,0.7348484848484849
18.671555962996916,0.7434017595307918
18.6815567963997,0.7434017595307918
18.691557629802485,0.7519550342130987
18.701558463205266,0.7421798631476051
18.71155929660805,0.7470674486803519
18.721560130010836,0.7311827956989247
18.731560963413617,0.7495112414467253
18.741561796816402,0.7495112414467253
18.751562630219187,0.771505376344086
18.761563463621968,0.7800586510263929
18.771564297024753,0.79227761485826
18.781565130427538,0.7812805474095796
18.79156596383032,0.7690615835777126
18.801566797233104,0.759286412512219
18.81156763063589,0.7360703812316716
18.82156846403867,0.7201857282502444
18.831569297441455,0.7421798631476051
18.84157013084424,0.7458455522971652
18.85157096424702,0.7519550342130987
18.861571797649805,0.7519550342130987
18.87157263105259,0.7495112414467253
18.88157346445537,0.7348484848484849
18.891574297858156,0.7409579667644184
18.90157513126094,0.7360703812316716
18.911575964663722,0.7458455522971652
18.921576798066507,0.7434017595307918
18.931577631469292,0.7519550342130987
18.941578464872073,0.7519550342130987
18.951579298274858,0.7397360703812317
18.96158013167764,0.7470674486803519
18.971580965080424,0.7495112414467253
18.98158179848321,0.7495112414467253
18.99158263188599,0.7556207233626588
19.001583465288775,0.7580645161290323
19.01158429869156,0.7543988269794721
19.02158513209434,0.7543988269794721
19.031585965497126,0.7543988269794721
19.04158679889991,0.7543988269794721
19.05158763230269,0.7543988269794721
19.061588465705476,0.7629521016617791
19.07158929910826,0.7678396871945259
19.081590132511042,0.7653958944281525
19.091590965913827,0.771505376344086
19.101591799316612,0.7641739980449658
19.111592632719393,0.7653958944281525
19.121593466122178,0.7739491691104594
19.131594299524963,0.7653958944281525
19.141595132927744,0.7751710654936461
19.15159596633053,0.7678396871945259
19.161596799733314,0.7653958944281525
19.171597633136095,0.7739491691104594
19.18159846653888,0.750733137829912
19.191599299941664,0.7543988269794721
19.201600133344446,0.7495112414467253
19.21160096674723,0.750733137829912
19.22160180015001,0.7458455522971652
19.231602633552797,0.750733137829912
19.24160346695558,0.7543988269794721
19.251604300358363,0.7519550342130987
19.261605133761147,0.7470674486803519
19.271605967163932,0.7397360703812317
19.281606800566713,0.7397360703812317
19.291607633969498,0.7495112414467253
19.301608467372283,0.7519550342130987
19.311609300775064,0.738514173998045
19.32161013417785,0.7519550342130987
19.331610967580634,0.7519550342130987
19.341611800983415,0.7470674486803519
19.3516126343862,0.7397360703812317
19.361613467788985,0.7470674486803519
19.371614301191766,0.7348484848484849
19.38161513459455,0.7421798631476051
19.391615967997335,0.7580645161290323
19.401616801400117,0.7434017595307918
19.4116176348029,0.7446236559139785
19.421618468205686,0.7495112414467253
19.431619301608468,0.7495112414467253
19.441620135011252,0.7495112414467253
19.451620968414037,0.7397360703812317
19.46162180181682,0.7519550342130987
19.471622635219603,0.7409579667644184
19.481623468622388,0.7543988269794721
19.49162430202517,0.7519550342130987
19.501625135427954,0.7543988269794721
19.511625968830735,0.7409579667644184
19.52162680223352,0.7397360703812317
19.531627635636305,0.7397360703812317
19.541628469039086,0.7519550342130987
19.55162930244187,0.7434017595307918
19.561630135844656,0.7446236559139785
19.571630969247437,0.7519550342130987
19.58163180265022,0.7348484848484849
19.591632636053006,0.7397360703812317
19.601633469455788,0.7495112414467253
19.611634302858572,0.7470674486803519
19.621635136261357,0.7458455522971652
19.63163596966414,0.7409579667644184
19.641636803066923,0.7421798631476051
19.651637636469708,0.7421798631476051
19.66163846987249,0.7470674486803519
19.671639303275274,0.7397360703812317
19.68164013667806,0.7470674486803519
19.69164097008084,0.7397360703812317
19.701641803483625,0.7446236559139785
19.71164263688641,0.7434017595307918
19.72164347028919,0.7519550342130987
19.731644303691976,0.7519550342130987
19.74164513709476,0.7495112414467253
19.751645970497542,0.7470674486803519
19.761646803900327,0.7397360703812317
19.77164763730311,0.7495112414467253
19.781648470705893,0.7556207233626588
19.791649304108677,0.7434017595307918
19.80165013751146,0.7519550342130987
19.811650970914243,0.7519550342130987
19.821651804317028,0.7409579667644184
19.83165263771981,0.7495112414467253
19.841653471122594,0.7470674486803519
19.85165430452538,0.7470674486803519
19.86165513792816,0.7519550342130987
19.871655971330945,0.7409579667644184
19.88165680473373,0.7421798631476051
19.89165763813651,0.7519550342130987
19.901658471539296,0.7397360703812317
19.91165930494208,0.7360703812316716
19.921660138344862,0.7397360703812317
19.931660971747647,0.7397360703812317
19.94166180515043,0.7421798631476051
19.951662638553213,0.738514173998045
19.961663471955998,0.7458455522971652
19.971664305358782,0.7543988269794721
19.981665138761564,0.7641739980449658
19.99166597216435,0.7788367546432062
20.001666805567133,0.7886119257086999
20.011667638969914,0.7788367546432062
20.0216684723727,0.771505376344086
20.031669305775484,0.7776148582600195
20.041670139178265,0.7617302052785924
20.05167097258105,0.7324046920821115
20.06167180598383,0.729960899315738
20.071672639386616,0.7409579667644184
20.0816734727894,0.7470674486803519
20.091674306192182,0.7397360703812317
20.101675139594967,0.7519550342130987
20.11167597299775,0.7482893450635386
20.121676806400533,0.7519550342130987
20.131677639803318,0.7519550342130987
20.141678473206102,0.7495112414467253
20.151679306608884,0.7397360703812317
20.16168014001167,0.7397360703812317
20.171680973414453,0.7495112414467253
20.181681806817235,0.7434017595307918
20.19168264022002,0.7580645161290323
20.201683473622804,0.7519550342130987
20.211684307025585,0.7543988269794721
20.22168514042837,0.7495112414467253
20.231685973831155,0.7495112414467253
20.241686807233936,0.759286412512219
20.25168764063672,0.7543988269794721
20.261688474039506,0.7617302052785924
20.271689307442287,0.7580645161290323
20.281690140845072,0.7617302052785924
20.291690974247857,0.7617302052785924
20.301691807650638,0.759286412512219
20.311692641053423,0.750733137829912
20.321693474456207,0.7641739980449658
20.33169430785899,0.7641739980449658
20.341695141261773,0.7812805474095796
20.351695974664555,0.7739491691104594
20.36169680806734,0.7727272727272727
20.371697641470124,0.7690615835777126
20.381698474872906,0.7641739980449658
20.39169930827569,0.7739491691104594
20.401700141678475,0.7641739980449658
20.411700975081256,0.7617302052785924
20.42170180848404,0.7666177908113392
20.431702641886826,0.7556207233626588
20.441703475289607,0.7617302052785924
20.451704308692392,0.7495112414467253
20.461705142095177,0.7495112414467253
20.471705975497958,0.7495112414467253
20.481706808900743,0.7495112414467253
20.491707642303528,0.7446236559139785
20.50170847570631,0.7434017595307918
20.511709309109094,0.7531769305962854
20.52171014251188,0.7446236559139785
20.53171097591466,0.7470674486803519
20.541711809317444,0.7495112414467253
20.55171264272023,0.7495112414467253
20.56171347612301,0.7397360703812317
20.571714309525795,0.7531769305962854
20.58171514292858,0.7482893450635386
20.59171597633136,0.7519550342130987
20.601716809734146,0.7519550342130987
20.61171764313693,0.7397360703812317
20.621718476539712,0.7409579667644184
20.631719309942497,0.7348484848484849
20.641720143345278,0.7470674486803519
20.651720976748063,0.7519550342130987
20.661721810150848,0.7434017595307918
20.67172264355363,0.7446236559139785
20.681723476956414,0.7617302052785924
20.6917243103592,0.7495112414467253
20.70172514376198,0.7409579667644184
20.711725977164765,0.7543988269794721
20.72172681056755,0.7470674486803519
20.73172764397033,0.7434017595307918
20.741728477373115,0.7458455522971652
20.7517293107759,0.7519550342130987
20.76173014417868,0.7519550342130987
20.771730977581466,0.7495112414467253
20.78173181098425,0.7397360703812317
20.791732644387032,0.7397360703812317
20.801733477789817,0.7397360703812317
20.811734311192602,0.7446236559139785
20.821735144595383,0.7458455522971652
20.831735977998168,0.7519550342130987
20.841736811400953,0.7543988269794721
20.851737644803734,0.7495112414467253
20.86173847820652,0.7470674486803519
20.871739311609304,0.7348484848484849
20.881740145012085,0.7470674486803519
20.89174097841487,0.7434017595307918
20.901741811817654,0.7434017595307918
20.911742645220436,0.7519550342130987
20.92174347862322,0.7421798631476051
20.931744312026,0.7470674486803519
20.941745145428786,0.7348484848484849
20.95174597883157,0.7470674486803519
20.961746812234352,0.7495112414467253
20.971747645637137,0.7519550342130987
20.981748479039922,0.750733137829912
20.991749312442703,0.7617302052785924
21.001750145845488,0.7543988269794721
21.011750979248273,0.7495112414467253
21.021751812651054,0.7495112414467253
21.03175264605384,0.7397360703812317
21.041753479456624,0.7617302052785924
21.051754312859405,0.750733137829912
21.06175514626219,0.7519550342130987
21.071755979664974,0.7519550342130987
21.081756813067756,0.7495112414467253
21.09175764647054,0.7397360703812317
21.101758479873325,0.7409579667644184
21.111759313276107,0.7348484848484849
21.12176014667889,0.7421798631476051
21.131760980081676,0.7458455522971652
21.141761813484457,0.7421798631476051
21.151762646887242,0.7519550342130987
21.161763480290027,0.7495112414467253
21.171764313692808,0.7397360703812317
21.181765147095593,0.7556207233626588
21.191765980498374,0.7556207233626588
21.20176681390116,0.7849462365591398
21.211767647303944,0.7873900293255132
21.221768480706725,0.7812805474095796
21.23176931410951,0.7641739980449658
21.241770147512295,0.7702834799608993
21.251770980915076,0.7470674486803519
21.26177181431786,0.7311827956989247
21.271772647720645,0.7519550342130987
21.281773481123427,0.7580645161290323
21.29177431452621,0.7519550342130987
21.301775147928996,0.7543988269794721
21.311775981331778,0.7495112414467253
21.321776814734562,0.7397360703812317
21.331777648137347,0.750733137829912
21.34177848154013,0.7470674486803519
21.351779314942913,0.7519550342130987
21.361780148345698,0.7434017595307918
21.37178098174848,0.7556207233626588
21.381781815151264,0.7543988269794721
21.39178264855405,0.7495112414467253
21.40178348195683,0.750733137829912
21.411784315359615,0.759286412512219
21.4217851487624,0.7495112414467253
21.43178598216518,0.7531769305962854
21.441786815567966,0.7605083088954057
21.45178764897075,0.771505376344086
21.46178848237353,0.7641739980449658
21.471789315776316,0.759286412512219
21.481790149179098,0.7605083088954057
21.491790982581882,0.7641739980449658
21.501791815984667,0.7605083088954057
21.51179264938745,0.7727272727272727
21.521793482790233,0.7763929618768328
21.531794316193018,0.771505376344086
21.5417951495958,0.771505376344086
21.551795982998584,0.7690615835777126
21.56179681640137,0.7690615835777126
21.57179764980415,0.7788367546432062
21.581798483206935,0.7641739980449658
21.59179931660972,0.7812805474095796
21.6018001500125,0.7678396871945259
21.611800983415286,0.7653958944281525
21.62180181681807,0.7617302052785924
21.631802650220852,0.7653958944281525
21.641803483623637,0.7470674486803519
21.65180431702642,0.7495112414467253
21.661805150429203,0.7360703812316716
21.671805983831987,0.7519550342130987
21.681806817234772,0.7580645161290323
21.691807650637553,0.7519550342130987
21.70180848404034,0.7519550342130987
21.711809317443123,0.7495112414467253
21.721810150845904,0.7348484848484849
21.73181098424869,0.7495112414467253
21.741811817651474,0.7495112414467253
21.751812651054255,0.7458455522971652
21.76181348445704,0.7482893450635386
21.77181431785982,0.7434017595307918
21.781815151262606,0.7519550342130987
21.79181598466539,0.7495112414467253
21.801816818068172,0.7397360703812317
21.811817651470957,0.7543988269794721
21.82181848487374,0.7348484848484849
21.831819318276523,0.7519550342130987
21.841820151679308,0.7482893450635386
21.851820985082092,0.7617302052785924
21.861821818484874,0.7470674486803519
21.87182265188766,0.7397360703812317
21.881823485290443,0.7495112414467253
21.891824318693224,0.7495112414467253
21.90182515209601,0.7629521016617791
21.911825985498794,0.7458455522971652
21.921826818901575,0.7519550342130987
21.93182765230436,0.7556207233626588
21.941828485707145,0.7495112414467253
21.951829319109926,0.7495112414467253
21.96183015251271,0.7495112414467253
21.971830985915496,0.7409579667644184
21.981831819318277,0.7519550342130987
21.99183265272106,0.7482893450635386
22.001833486123846,0.7543988269794721
22.011834319526628,0.7519550342130987
22.021835152929413,0.7397360703812317
22.031835986332194,0.7495112414467253
22.04183681973498,0.7495112414467253
22.051837653137763,0.7470674486803519
22.061838486540545,0.7458455522971652
22.07183931994333,0.7568426197458455
22.081840153346114,0.7519550342130987
22.091840986748895,0.7519550342130987
22.10184182015168,0.7495112414467253
22.111842653554465,0.7397360703812317
22.121843486957246,0.7470674486803519
22.13184432036003,0.7470674486803519
22.141845153762816,0.7421798631476051
22.151845987165597,0.7580645161290323
22.161846820568382,0.7519550342130987
22.171847653971167,0.7519550342130987
22.181848487373948,0.759286412512219
22.191849320776733,0.729960899315738
22.201850154179517,0.759286412512219
22.2118509875823,0.750733137829912
22.221851820985083,0.7519550342130987
22.23185265438787,0.7458455522971652
22.24185348779065,0.7519550342130987
22.251854321193434,0.7617302052785924
22.26185515459622,0.7470674486803519
22.271855987999,0.7397360703812317
22.281856821401785,0.7360703812316716
22.29185765480457,0.7519550342130987
22.30185848820735,0.7434017595307918
22.311859321610136,0.7434017595307918
22.321860155012917,0.7519550342130987
22.331860988415702,0.7409579667644184
22.341861821818487,0.7397360703812317
22.351862655221268,0.7470674486803519
22.361863488624053,0.7495112414467253
22.371864322026838,0.7617302052785924
22.38186515542962,0.7678396871945259
22.391865988832404,0.7910557184750733
22.40186682223519,0.8008308895405669
22.41186765563797,0.7690615835777126
22.421868489040754,0.7739491691104594
22.43186932244354,0.7214076246334311
22.44187015584632,0.7421798631476051
22.451870989249105,0.7434017595307918
22.46187182265189,0.7556207233626588
22.47187265605467,0.7617302052785924
22.481873489457456,0.750733137829912
22.49187432286024,0.7495112414467253
22.501875156263022,0.7495112414467253
22.511875989665807,0.7360703812316716
22.52187682306859,0.7519550342130987
22.531877656471373,0.7482893450635386
22.541878489874158,0.7519550342130987
22.551879323276943,0.7519550342130987
22.561880156679724,0.7495112414467253
22.57188099008251,0.7409579667644184
22.581881823485293,0.7543988269794721
22.591882656888075,0.7495112414467253
22.60188349029086,0.7617302052785924
22.61188432369364,0.750733137829912
22.621885157096425,0.7531769305962854
22.63188599049921,0.7617302052785924
22.64188682390199,0.7543988269794721
22.651887657304776,0.750733137829912
22.66188849070756,0.7543988269794721
22.671889324110342,0.7495112414467253
22.681890157513127,0.771505376344086
22.691890990915912,0.771505376344086
22.701891824318693,0.771505376344086
22.711892657721478,0.7690615835777126
22.721893491124263,0.7605083088954057
22.731894324527044,0.7690615835777126
22.74189515792983,0.7739491691104594
22.751895991332614,0.7641739980449658
22.761896824735395,0.7678396871945259
22.77189765813818,0.7812805474095796
22.781898491540964,0.7641739980449658
22.791899324943746,0.7641739980449658
22.80190015834653,0.7495112414467253
22.811900991749315,0.750733137829912
22.821901825152096,0.750733137829912
22.83190265855488,0.7360703812316716
22.841903491957666,0.750733137829912
22.851904325360447,0.7421798631476051
22.861905158763232,0.7519550342130987
22.871905992166013,0.7397360703812317
22.881906825568798,0.7360703812316716
22.891907658971583,0.7495112414467253
22.901908492374364,0.7397360703812317
22.91190932577715,0.7458455522971652
22.921910159179934,0.7482893450635386
22.931910992582715,0.7434017595307918
22.9419118259855,0.7519550342130987
22.951912659388285,0.7495112414467253
22.961913492791066,0.7470674486803519
22.97191432619385,0.7397360703812317
22.981915159596635,0.7397360703812317
22.991915992999417,0.7458455522971652
23.0019168264022,0.7434017595307918
23.011917659804986,0.7421798631476051
23.021918493207767,0.7543988269794721
23.031919326610552,0.7495112414467253
23.041920160013337,0.7397360703812317
23.051920993416118,0.7470674486803519
23.061921826818903,0.7397360703812317
23.071922660221688,0.7519550342130987
23.08192349362447,0.7458455522971652
23.091924327027254,0.7458455522971652
23.10192516043004,0.7519550342130987
23.11192599383282,0.7495112414467253
23.121926827235605,0.7397360703812317
23.13192766063839,0.7348484848484849
23.14192849404117,0.7348484848484849
23.151929327443955,0.7519550342130987
23.161930160846737,0.7434017595307918
23.17193099424952,0.7446236559139785
23.181931827652306,0.7519550342130987
23.191932661055088,0.7311827956989247
23.201933494457872,0.7397360703812317
23.211934327860657,0.7397360703812317
23.22193516126344,0.7348484848484849
23.231935994666223,0.7421798631476051
23.241936828069008,0.7434017595307918
23.25193766147179,0.7434017595307918
23.261938494874574,0.7519550342130987
23.27193932827736,0.7495112414467253
23.28194016168014,0.7409579667644184
23.291940995082925,0.7397360703812317
23.30194182848571,0.7434017595307918
23.31194266188849,0.7434017595307918
23.321943495291276,0.7519550342130987
23.33194432869406,0.7519550342130987
23.34194516209684,0.7495112414467253
23.351945995499626,0.750733137829912
23.36194682890241,0.7495112414467253
23.371947662305192,0.7348484848484849
23.381948495707977,0.7617302052785924
23.391949329110762,0.738514173998045
23.401950162513543,0.7519550342130987
23.411950995916328,0.7470674486803519
23.421951829319113,0.7495112414467253
23.431952662721894,0.7397360703812317
23.44195349612468,0.7470674486803519
23.45195432952746,0.7446236559139785
23.461955162930245,0.738514173998045
23.47195599633303,0.7531769305962854
23.48195682973581,0.7617302052785924
23.491957663138596,0.7348484848484849
23.50195849654138,0.7409579667644184
23.511959329944162,0.7495112414467253
23.521960163346947,0.7543988269794721
23.53196099674973,0.7825024437927663
23.541961830152513,0.7812805474095796
23.551962663555297,0.7812805474095796
23.561963496958082,0.7641739980449658
23.571964330360863,0.7495112414467253
23.58196516376365,0.7262952101661779
23.591965997166433,0.7397360703812317
23.601966830569214,0.7421798631476051
23.611967663972,0.7458455522971652
23.621968497374784,0.7446236559139785
23.631969330777565,0.7458455522971652
23.64197016418035,0.7495112414467253
23.651970997583135,0.7409579667644184
23.661971830985916,0.7495112414467253
23.6719726643887,0.7397360703812317
23.681973497791486,0.750733137829912
23.691974331194267,0.7519550342130987
23.70197516459705,0.7543988269794721
23.711975997999833,0.7397360703812317
23.721976831402618,0.7348484848484849
23.731977664805402,0.7556207233626588
23.741978498208184,0.7495112414467253
23.75197933161097,0.7617302052785924
23.761980165013753,0.7482893450635386
23.771980998416534,0.7617302052785924
23.78198183181932,0.7641739980449658
23.791982665222104,0.7641739980449658
23.801983498624885,0.7543988269794721
23.81198433202767,0.7605083088954057
23.821985165430455,0.7556207233626588
23.831985998833236,0.771505376344086
23.84198683223602,0.7678396871945259
23.851987665638806,0.771505376344086
23.861988499041587,0.7849462365591398
23.87198933244437,0.7788367546432062
23.881990165847157,0.7690615835777126
23.891990999249938,0.7739491691104594
23.901991832652723,0.7556207233626588
23.911992666055507,0.7727272727272727
23.92199349945829,0.7678396871945259
23.931994332861073,0.7519550342130987
23.941995166263858,0.7812805474095796
23.95199599966664,0.759286412512219
23.961996833069424,0.7556207233626588
23.97199766647221,0.7556207233626588
23.98199849987499,0.7519550342130987
23.991999333277775,0.7287390029325513
24.002000166680556,0.7617302052785924
24.01200100008334,0.771505376344086
24.022001833486126,0.7470674486803519
24.032002666888907,0.7311827956989247
24.042003500291692,0.7495112414467253
24.052004333694477,0.7348484848484849
24.062005167097258,0.7421798631476051
24.072006000500043,0.738514173998045
24.082006833902827,0.7617302052785924
24.09200766730561,0.7519550342130987
24.102008500708394,0.7556207233626588
24.11200933411118,0.7116324535679375
24.12201016751396,0.7397360703812317
24.132011000916744,0.7397360703812317
24.14201183431953,0.7360703812316716
24.15201266772231,0.7568426197458455
24.162013501125095,0.7324046920821115
24.17201433452788,0.7152981427174976
24.18201516793066,0.7641739980449658
24.192016001333446,0.7605083088954057
24.20201683473623,0.7214076246334311
24.212017668139012,0.729960899315738
24.222018501541797,0.7348484848484849
24.23201933494458,0.738514173998045
24.242020168347363,0.7458455522971652
24.252021001750148,0.7446236559139785
24.262021835152932,0.7201857282502444
24.272022668555714,0.7543988269794721
24.2820235019585,0.7543988269794721
24.29202433536128,0.7152981427174976
24.302025168764064,0.7262952101661779
24.31202600216685,0.7165200391006843
24.32202683556963,0.7226295210166178
24.332027668972415,0.7470674486803519
24.3420285023752,0.729960899315738
24.35202933577798,0.7348484848484849
24.362030169180766,0.7165200391006843
24.37203100258355,0.7421798631476051
24.382031835986332,0.738514173998045
24.392032669389117,0.7543988269794721
24.4020335027919,0.7397360703812317
24.412034336194683,0.7104105571847508
24.422035169597468,0.7409579667644184
24.432036003000253,0.7116324535679375
24.442036836403034,0.7336265884652982
24.45203766980582,0.7580645161290323
24.462038503208603,0.7421798631476051
24.472039336611385,0.7324046920821115
24.48204017001417,0.759286412512219
24.492041003416954,0.6908602150537635
24.502041836819735,0.7250733137829912
24.51204267022252,0.729960899315738
24.522043503625305,0.7226295210166178
24.532044337028086,0.6994134897360704
24.54204517043087,0.7128543499511242
24.552046003833652,0.7519550342130987
24.562046837236437,0.7605083088954057
24.572047670639222,0.7348484848484849
24.582048504042003,0.7397360703812317
24.592049337444788,0.729960899315738
24.602050170847573,0.7360703812316716
24.612051004250354,0.7238514173998045
24.62205183765314,0.7421798631476051
24.632052671055924,0.7812805474095796
24.642053504458705,0.7690615835777126
24.65205433786149,0.7690615835777126
24.662055171264274,0.7641739980449658
24.672056004667056,0.7653958944281525
24.68205683806984,0.7324046920821115
24.692057671472625,0.717741935483871
24.702058504875406,0.7128543499511242
24.71205933827819,0.7348484848484849
24.722060171680976,0.7409579667644184
24.732061005083757,0.7250733137829912
24.742061838486542,0.7360703812316716
24.752062671889327,0.7495112414467253
24.762063505292108,0.7324046920821115
24.772064338694893,0.7372922776148583
24.782065172097678,0.7617302052785924
24.79206600550046,0.7226295210166178
24.802066838903244,0.759286412512219
24.81206767230603,0.7495112414467253
24.82206850570881,0.7116324535679375
24.832069339111595,0.7617302052785924
24.842070172514376,0.738514173998045
24.85207100591716,0.7519550342130987
24.862071839319945,0.7324046920821115
24.872072672722727,0.729960899315738
24.88207350612551,0.7543988269794721
24.892074339528296,0.759286412512219
24.902075172931077,0.7250733137829912
24.912076006333862,0.7519550342130987
24.922076839736647,0.7434017595307918
24.93207767313943,0.771505376344086
24.942078506542213,0.7641739980449658
24.952079339944998,0.759286412512219
24.96208017334778,0.7397360703812317
24.972081006750564,0.7788367546432062
24.98208184015335,0.7397360703812317
24.99208267355613,0.7653958944281525
25.002083506958915,0.7666177908113392
25.0120843403617,0.7849462365591398
25.02208517376448,0.771505376344086
25.032086007167266,0.7690615835777126
25.04208684057005,0.7495112414467253
25.05208767397283,0.729960899315738
25.062088507375616,0.7495112414467253
25.0720893407784,0.7421798631476051
25.082090174181182,0.7409579667644184
25.092091007583967,0.7421798631476051
25.102091840986752,0.7434017595307918
25.112092674389533,0.7201857282502444
25.122093507792318,0.7348484848484849
25.1320943411951,0.7250733137829912
25.142095174597884,0.7397360703812317
25.15209600800067,0.7226295210166178
25.16209684140345,0.7189638318670577
25.172097674806235,0.7421798631476051
25.18209850820902,0.7421798631476051
25.1920993416118,0.7201857282502444
25.202100175014586,0.7348484848484849
25.21210100841737,0.7495112414467253
25.22210184182015,0.7397360703812317
25.232102675222936,0.7275171065493646
25.24210350862572,0.7067448680351907
25.252104342028503,0.7324046920821115
25.262105175431287,0.7324046920821115
25.272106008834072,0.7250733137829912
25.282106842236853,0.7495112414467253
25.292107675639638,0.7104105571847508
25.302108509042423,0.7495112414467253
25.312109342445204,0.7324046920821115
25.32211017584799,0.738514173998045
25.332111009250774,0.7275171065493646
25.342111842653555,0.7128543499511242
25.35211267605634,0.7250733137829912
25.362113509459125,0.7311827956989247
25.372114342861906,0.7165200391006843
25.38211517626469,0.7104105571847508
25.392116009667472,0.7519550342130987
25.402116843070257,0.7262952101661779
25.41211767647304,0.7324046920821115
25.422118509875823,0.7421798631476051
25.432119343278607,0.7201857282502444
25.442120176681392,0.7262952101661779
25.452121010084173,0.7250733137829912
25.46212184348696,0.7262952101661779
25.472122676889743,0.7324046920821115
25.482123510292524,0.738514173998045
25.49212434369531,0.7043010752688172
25.502125177098094,0.7275171065493646
25.512126010500875,0.7495112414467253
25.52212684390366,0.7311827956989247
25.532127677306445,0.7311827956989247
25.542128510709226,0.7470674486803519
25.55212934411201,0.7030791788856305
25.562130177514796,0.7409579667644184
25.572131010917577,0.7336265884652982
25.58213184432036,0.7348484848484849
25.592132677723146,0.7104105571847508
25.602133511125928,0.7262952101661779
25.612134344528712,0.7495112414467253
25.622135177931497,0.7250733137829912
25.63213601133428,0.705522971652004
25.642136844737063,0.7238514173998045
25.652137678139848,0.7140762463343109
25.66213851154263,0.7348484848484849
25.672139344945414,0.7104105571847508
25.682140178348195,0.7104105571847508
25.69214101175098,0.7348484848484849
25.702141845153765,0.7152981427174976
25.712142678556546,0.7324046920821115
25.72214351195933,0.7116324535679375
25.732144345362116,0.7128543499511242
25.742145178764897,0.7421798631476051
25.75214601216768,0.7690615835777126
25.762146845570467,0.7470674486803519
25.772147678973248,0.7495112414467253
25.782148512376033,0.7519550342130987
25.792149345778817,0.6847507331378299
25.8021501791816,0.7324046920821115
25.812151012584383,0.7324046920821115
25.822151845987168,0.7348484848484849
25.83215267938995,0.729960899315738
25.842153512792734,0.7079667644183774
25.85215434619552,0.729960899315738
25.8621551795983,0.7324046920821115
25.872156013001085,0.738514173998045
25.88215684640387,0.7324046920821115
25.89215767980665,0.7348484848484849
25.902158513209436,0.7397360703812317
25.91215934661222,0.7152981427174976
25.922160180015002,0.7250733137829912
25.932161013417787,0.7556207233626588
25.94216184682057,0.738514173998045
25.952162680223353,0.7030791788856305
25.962163513626138,0.7446236559139785
25.97216434702892,0.729960899315738
25.982165180431704,0.7495112414467253
25.99216601383449,0.7397360703812317
26.00216684723727,0.7214076246334311
26.012167680640054,0.7421798631476051
26.02216851404284,0.7702834799608993
26.03216934744562,0.7531769305962854
26.042170180848405,0.7519550342130987
26.05217101425119,0.7250733137829912
26.06217184765397,0.7543988269794721
26.072172681056756,0.7201857282502444
26.08217351445954,0.7495112414467253
26.092174347862322,0.7519550342130987
26.102175181265107,0.7580645161290323
26.11217601466789,0.771505376344086
26.122176848070673,0.7446236559139785
26.132177681473458,0.7653958944281525
26.142178514876242,0.7348484848484849
26.152179348279024,0.7495112414467253
26.16218018168181,0.7495112414467253
26.172181015084593,0.7360703812316716
26.182181848487375,0.738514173998045
26.19218268189016,0.7348484848484849
26.202183515292944,0.7324046920821115
26.212184348695725,0.729960899315738
26.22218518209851,0.7104105571847508
26.232186015501295,0.7104105571847508
26.242186848904076,0.7360703812316716
26.25218768230686,0.7324046920821115
26.262188515709642,0.7214076246334311
26.272189349112427,0.7324046920821115
26.28219018251521,0.7421798631476051
26.292191015917993,0.7104105571847508
26.302191849320778,0.7397360703812317
26.312192682723563,0.7152981427174976
26.322193516126344,0.7165200391006843
26.33219434952913,0.7324046920821115
26.342195182931913,0.6994134897360704
26.352196016334695,0.705522971652004
26.36219684973748,0.7519550342130987
26.372197683140264,0.7201857282502444
26.382198516543045,0.7360703812316716
26.39219934994583,0.7152981427174976
26.402200183348615,0.7201857282502444
26.412201016751396,0.7165200391006843
26.42220185015418,0.738514173998045
26.432202683556966,0.7348484848484849
26.442203516959747,0.7519550342130987
26.452204350362532,0.7397360703812317
26.462205183765317,0.729960899315738
26.472206017168098,0.7397360703812317
26.482206850570883,0.7152981427174976
26.492207683973668,0.7421798631476051
26.50220851737645,0.7324046920821115
26.512209350779234,0.7324046920821115
26.522210184182015,0.7201857282502444
26.5322110175848,0.7201857282502444
26.542211850987584,0.7262952101661779
26.552212684390366,0.7250733137829912
26.56221351779315,0.7458455522971652
26.572214351195935,0.7189638318670577
26.582215184598716,0.7348484848484849
26.5922160180015,0.7348484848484849
26.602216851404286,0.7250733137829912
26.612217684807067,0.7214076246334311
26.622218518209852,0.729960899315738
26.632219351612637,0.7214076246334311
26.642220185015418,0.7324046920821115
26.652221018418203,0.7189638318670577
26.662221851820988,0.7324046920821115
26.67222268522377,0.7421798631476051
26.682223518626554,0.7348484848484849
26.69222435202934,0.7311827956989247
26.70222518543212,0.729960899315738
26.712226018834905,0.7262952101661779
26.72222685223769,0.7324046920821115
26.73222768564047,0.7311827956989247
26.742228519043255,0.7226295210166178
26.75222935244604,0.7324046920821115
26.76223018584882,0.7152981427174976
26.772231019251606,0.7201857282502444
26.78223185265439,0.7250733137829912
26.792232686057172,0.7152981427174976
26.802233519459957,0.7275171065493646
26.81223435286274,0.7275171065493646
26.822235186265523,0.7336265884652982
26.832236019668308,0.729960899315738
26.84223685307109,0.7495112414467253
26.852237686473874,0.7495112414467253
26.86223851987666,0.7653958944281525
26.87223935327944,0.7617302052785924
26.882240186682225,0.7580645161290323
26.89224102008501,0.7617302052785924
26.90224185348779,0.7348484848484849
26.912242686890576,0.7104105571847508
26.92224352029336,0.7152981427174976
26.93224435369614,0.729960899315738
26.942245187098926,0.7360703812316716
26.95224602050171,0.7324046920821115
26.962246853904492,0.7189638318670577
26.972247687307277,0.7421798631476051
26.982248520710062,0.7128543499511242
26.992249354112843,0.7348484848484849
27.002250187515628,0.7250733137829912
27.012251020918413,0.729960899315738
27.022251854321194,0.7250733137829912
27.03225268772398,0.7336265884652982
27.042253521126764,0.7238514173998045
27.052254354529545,0.7421798631476051
27.06225518793233,0.7324046920821115
27.072256021335114,0.7470674486803519
27.082256854737896,0.729960899315738
27.09225768814068,0.729960899315738
27.10225852154346,0.7470674486803519
27.112259354946247,0.7421798631476051
27.12226018834903,0.7421798631476051
27.132261021751813,0.7519550342130987
27.142261855154597,0.7397360703812317
27.152262688557382,0.7495112414467253
27.162263521960163,0.7543988269794721
27.172264355362948,0.7495112414467253
27.182265188765733,0.7543988269794721
27.192266022168514,0.7434017595307918
27.2022668555713,0.7531769305962854
27.212267688974084,0.7617302052785924
27.222268522376865,0.7495112414467253
27.23226935577965,0.7495112414467253
27.242270189182435,0.7543988269794721
27.252271022585216,0.7543988269794721
27.262271855988,0.7519550342130987
27.272272689390785,0.7434017595307918
27.282273522793567,0.7421798631476051
27.29227435619635,0.7348484848484849
27.302275189599136,0.7311827956989247
27.312276023001917,0.7262952101661779
27.322276856404702,0.7262952101661779
27.332277689807487,0.7336265884652982
27.34227852321027,0.7262952101661779
27.352279356613053,0.7275171065493646
27.362280190015834,0.7324046920821115
27.37228102341862,0.7250733137829912
27.382281856821404,0.7250733137829912
27.392282690224185,0.7311827956989247
27.40228352362697,0.7250733137829912
27.412284357029755,0.7336265884652982
27.422285190432536,0.738514173998045
27.43228602383532,0.7348484848484849
27.442286857238106,0.7360703812316716
27.452287690640887,0.729960899315738
27.46228852404367,0.7311827956989247
27.472289357446456,0.7360703812316716
27.482290190849238,0.7458455522971652
27.492291024252022,0.7372922776148583
27.502291857654807,0.7421798631476051
27.51229269105759,0.7421798631476051
27.522293524460373,0.7348484848484849
27.532294357863158,0.7348484848484849
27.54229519126594,0.7360703812316716
27.552296024668724,0.729960899315738
27.56229685807151,0.7421798631476051
27.57229769147429,0.7434017595307918
27.582298524877075,0.7421798631476051
27.59229935827986,0.7421798631476051
27.60230019168264,0.7348484848484849
27.612301025085426,0.7348484848484849
27.62230185848821,0.7397360703812317
27.63230269189099,0.7348484848484849
27.642303525293777,0.7360703812316716
27.652304358696558,0.7372922776148583
27.662305192099343,0.7458455522971652
27.672306025502127,0.7446236559139785
27.68230685890491,0.7348484848484849
27.692307692307693,0.7495112414467253
27.702308525710478,0.7397360703812317
27.71230935911326,0.7348484848484849
27.722310192516044,0.7519550342130987
27.73231102591883,0.7434017595307918
27.74231185932161,0.7519550342130987
27.752312692724395,0.7519550342130987
27.76231352612718,0.7495112414467253
27.77231435952996,0.7495112414467253
27.782315192932746,0.7543988269794721
27.79231602633553,0.7446236559139785
27.802316859738312,0.7458455522971652
27.812317693141097,0.7519550342130987
27.82231852654388,0.7519550342130987
27.832319359946663,0.7470674486803519
27.842320193349448,0.7397360703812317
27.852321026752232,0.7360703812316716
27.862321860155014,0.7397360703812317
27.8723226935578,0.7519550342130987
27.882323526960583,0.7434017595307918
27.892324360363364,0.7446236559139785
27.90232519376615,0.7446236559139785
27.912326027168934,0.7470674486803519
27.922326860571715,0.7397360703812317
27.9323276939745,0.7543988269794721
27.94232852737728,0.7849462365591398
27.952329360780066,0.7800586510263929
27.96233019418285,0.7910557184750733
27.972331027585632,0.7739491691104594
27.982331860988417,0.7788367546432062
27.9923326943912,0.7690615835777126
28.002333527793983,0.729960899315738
28.012334361196768,0.7348484848484849
28.022335194599552,0.7617302052785924
28.032336028002334,0.750733137829912
28.04233686140512,0.7519550342130987
28.052337694807903,0.7617302052785924
28.062338528210685,0.7495112414467253
28.07233936161347,0.750733137829912
28.082340195016254,0.750733137829912
28.092341028419035,0.7495112414467253
28.10234186182182,0.7519550342130987
28.112342695224605,0.7580645161290323
28.122343528627386,0.7519550342130987
28.13234436203017,0.7617302052785924
28.142345195432956,0.759286412512219
28.152346028835737,0.750733137829912
28.162346862238522,0.7543988269794721
28.172347695641307,0.750733137829912
28.182348529044088,0.771505376344086
28.192349362446873,0.7678396871945259
28.202350195849654,0.7617302052785924
28.21235102925244,0.771505376344086
28.222351862655223,0.7690615835777126
28.232352696058005,0.7641739980449658
28.24235352946079,0.7690615835777126
28.252354362863574,0.7641739980449658
28.262355196266356,0.7776148582600195
28.27235602966914,0.771505376344086
28.282356863071925,0.7812805474095796
28.292357696474706,0.7788367546432062
28.30235852987749,0.7739491691104594
28.312359363280276,0.7739491691104594
28.322360196683057,0.7788367546432062
28.332361030085842,0.7812805474095796
28.342361863488627,0.7776148582600195
28.352362696891408,0.7812805474095796
28.362363530294193,0.771505376344086
28.372364363696978,0.7653958944281525
28.38236519709976,0.759286412512219
28.392366030502544,0.759286412512219
28.40236686390533,0.7543988269794721
28.41236769730811,0.7678396871945259
28.422368530710894,0.7543988269794721
28.43236936411368,0.771505376344086
28.44237019751646,0.750733137829912
28.452371030919245,0.7543988269794721
28.46237186432203,0.7543988269794721
28.47237269772481,0.7495112414467253
28.482373531127596,0.7617302052785924
28.492374364530377,0.7580645161290323
28.502375197933162,0.7617302052785924
28.512376031335947,0.7617302052785924
28.522376864738728,0.7543988269794721
28.532377698141513,0.750733137829912
28.542378531544298,0.7556207233626588
28.55237936494708,0.759286412512219
28.562380198349864,0.7629521016617791
28.57238103175265,0.7580645161290323
28.58238186515543,0.7617302052785924
28.592382698558215,0.7641739980449658
28.602383531961,0.7543988269794721
28.61238436536378,0.7543988269794721
28.622385198766565,0.7605083088954057
28.63238603216935,0.7543988269794721
28.64238686557213,0.7556207233626588
28.652387698974916,0.7666177908113392
28.6623885323777,0.7617302052785924
28.672389365780482,0.771505376344086
28.682390199183267,0.7641739980449658
28.692391032586052,0.759286412512219
28.702391865988833,0.759286412512219
28.712392699391618,0.759286412512219
28.722393532794403,0.7617302052785924
28.732394366197184,0.7580645161290323
28.74239519959997,0.771505376344086
28.752396033002753,0.771505376344086
28.762396866405535,0.759286412512219
28.77239769980832,0.759286412512219
28.7823985332111,0.759286412512219
28.792399366613886,0.759286412512219
28.80240020001667,0.7629521016617791
28.81240103341945,0.7678396871945259
28.822401866822236,0.771505376344086
28.83240270022502,0.7727272727272727
28.842403533627802,0.7641739980449658
28.852404367030587,0.759286412512219
28.862405200433372,0.7690615835777126
28.872406033836153,0.7690615835777126
28.882406867238938,0.771505376344086
28.892407700641723,0.7776148582600195
28.902408534044504,0.7751710654936461
28.91240936744729,0.7812805474095796
28.922410200850074,0.7702834799608993
28.932411034252855,0.7641739980449658
28.94241186765564,0.7739491691104594
28.952412701058424,0.7641739980449658
28.962413534461206,0.771505376344086
28.97241436786399,0.7666177908113392
28.982415201266775,0.771505376344086
28.992416034669557,0.771505376344086
29.00241686807234,0.7641739980449658
29.012417701475126,0.759286412512219
29.022418534877907,0.7690615835777126
29.032419368280692,0.759286412512219
29.042420201683473,0.771505376344086
29.052421035086258,0.7678396871945259
29.062421868489043,0.7727272727272727
29.072422701891824,0.7812805474095796
29.08242353529461,0.7947214076246334
29.092424368697394,0.8032746823069403
29.102425202100175,0.813049853372434
29.11242603550296,0.7934995112414467
29.122426868905745,0.7934995112414467
29.132427702308526,0.7971652003910068
29.14242853571131,0.7653958944281525
29.152429369114095,0.771505376344086
29.162430202516877,0.7739491691104594
29.17243103591966,0.7739491691104594
29.182431869322446,0.7739491691104594
29.192432702725228,0.7690615835777126
29.202433536128012,0.7739491691104594
29.212434369530797,0.7776148582600195
29.22243520293358,0.7812805474095796
29.232436036336363,0.7812805474095796
29.242436869739148,0.7788367546432062
29.25243770314193,0.7702834799608993
29.262438536544714,0.7739491691104594
29.2724393699475,0.7751710654936461
29.28244020335028,0.7812805474095796
29.292441036753065,0.7776148582600195
29.30244187015585,0.7825024437927663
29.31244270355863,0.7910557184750733
29.322443536961416,0.7861681329423265
29.332444370364197,0.7788367546432062
29.34244520376698,0.7861681329423265
29.352446037169766,0.7886119257086999
29.362446870572548,0.7873900293255132
29.372447703975332,0.7910557184750733
29.382448537378117,0.8057184750733137
29.3924493707809,0.7983870967741935
29.402450204183683,0.7898338220918866
29.412451037586468,0.8032746823069403
29.42245187098925,0.7996089931573802
29.432452704392034,0.8057184750733137
29.44245353779482,0.8020527859237536
29.4524543711976,0.8106060606060606
29.462455204600385,0.8106060606060606
29.47245603800317,0.7983870967741935
29.48245687140595,0.7934995112414467
29.492457704808736,0.7983870967741935
29.50245853821152,0.7898338220918866
29.5124593716143,0.7849462365591398
29.522460205017087,0.7910557184750733
29.53246103841987,0.7910557184750733
29.542461871822653,0.7800586510263929
29.552462705225437,0.7739491691104594
29.562463538628222,0.7751710654936461
29.572464372031003,0.7739491691104594
29.582465205433788,0.7812805474095796
29.592466038836573,0.7825024437927663
29.602466872239354,0.783724340175953
29.61246770564214,0.7812805474095796
29.62246853904492,0.7788367546432062
29.632469372447705,0.7751710654936461
29.64247020585049,0.7739491691104594
29.65247103925327,0.7751710654936461
29.662471872656056,0.7776148582600195
29.67247270605884,0.783724340175953
29.682473539461622,0.7910557184750733
29.692474372864407,0.7886119257086999
29.70247520626719,0.7788367546432062
29.712476039669973,0.7751710654936461
29.722476873072758,0.7751710654936461
29.732477706475542,0.7812805474095796
29.742478539878324,0.7825024437927663
29.75247937328111,0.7812805474095796
29.762480206683893,0.7910557184750733
29.772481040086674,0.7886119257086999
29.78248187348946,0.7751710654936461
29.792482706892244,0.7886119257086999
29.802483540295025,0.7788367546432062
29.81248437369781,0.7873900293255132
29.822485207100595,0.7849462365591398
29.832486040503376,0.7910557184750733
29.84248687390616,0.7886119257086999
29.852487707308946,0.7861681329423265
29.862488540711727,0.7886119257086999
29.87248937411451,0.7861681329423265
29.882490207517293,0.7910557184750733
29.892491040920078,0.7849462365591398
29.902491874322862,0.7849462365591398
29.912492707725644,0.7910557184750733
29.92249354112843,0.7886119257086999
29.932494374531213,0.7739491691104594
29.942495207933995,0.7886119257086999
29.95249604133678,0.7861681329423265
29.962496874739564,0.7910557184750733
29.972497708142345,0.7873900293255132
29.98249854154513,0.7910557184750733
29.992499374947915,0.7910557184750733
30.002500208350696,0.7886119257086999
30.01250104175348,0.7886119257086999
30.022501875156266,0.7886119257086999
30.032502708559047,0.7886119257086999
30.042503541961832,0.7910557184750733
30.052504375364617,0.7971652003910068
30.062505208767398,0.7910557184750733
30.072506042170183,0.8008308895405669
30.082506875572967,0.7886119257086999
30.09250770897575,0.7886119257086999
30.102508542378533,0.7934995112414467
30.11250937578132,0.7861681329423265
30.1225102091841,0.7910557184750733
30.132511042586884,0.7873900293255132
30.14251187598967,0.7849462365591398
30.15251270939245,0.7910557184750733
30.162513542795235,0.7788367546432062
30.172514376198016,0.7788367546432062
30.1825152096008,0.7861681329423265
30.192516043003586,0.7886119257086999
30.202516876406367,0.7910557184750733
30.212517709809152,0.7776148582600195
30.222518543211937,0.7910557184750733
30.232519376614718,0.8008308895405669
30.242520210017503,0.8142717497556207
30.252521043420288,0.8142717497556207
30.26252187682307,0.8277126099706744
30.272522710225854,0.8277126099706744
30.28252354362864,0.8167155425219941
30.29252437703142,0.8008308895405669
30.302525210434204,0.7812805474095796
30.31252604383699,0.7886119257086999
30.32252687723977,0.7886119257086999
30.332527710642555,0.7934995112414467
30.34252854404534,0.7886119257086999
30.35252937744812,0.7947214076246334
30.362530210850906,0.7971652003910068
30.37253104425369,0.7947214076246334
30.382531877656472,0.8057184750733137
30.392532711059257,0.7947214076246334
30.40253354446204,0.7898338220918866
30.412534377864823,0.7934995112414467
30.422535211267608,0.7934995112414467
30.432536044670393,0.7971652003910068
30.442536878073174,0.8008308895405669
30.45253771147596,0.8057184750733137
30.46253854487874,0.7996089931573802
30.472539378281525,0.7983870967741935
30.48254021168431,0.7983870967741935
30.49254104508709,0.7983870967741935
30.502541878489875,0.8106060606060606
30.51254271189266,0.804496578690127
30.52254354529544,0.8118279569892473
30.532544378698226,0.8142717497556207
30.54254521210101,0.813049853372434
30.552546045503792,0.8093841642228738
30.562546878906577,0.8179374389051808
30.572547712309362,0.8142717497556207
30.582548545712143,0.8216031280547409
30.592549379114928,0.8240469208211143
30.602550212517713,0.8228250244379276
30.612551045920494,0.8277126099706744
30.62255187932328,0.8179374389051808
30.632552712726064,0.8179374389051808
30.642553546128845,0.8081622678396871
30.65255437953163,0.8118279569892473
30.662555212934414,0.8167155425219941
30.672556046337196,0.8106060606060606
30.68255687973998,0.8106060606060606
30.692557713142765,0.7983870967741935
30.702558546545546,0.7898338220918866
30.71255937994833,0.7947214076246334
30.722560213351116,0.7983870967741935
30.732561046753897,0.8008308895405669
30.742561880156682,0.7971652003910068
30.752562713559463,0.8008308895405669
30.762563546962248,0.8057184750733137
30.772564380365033,0.7934995112414467
30.782565213767814,0.7983870967741935
30.7925660471706,0.7983870967741935
30.802566880573384,0.7886119257086999
30.812567713976165,0.8008308895405669
30.82256854737895,0.7971652003910068
30.832569380781734,0.8008308895405669
30.842570214184516,0.8057184750733137
30.8525710475873,0.7983870967741935
30.862571880990085,0.7886119257086999
30.872572714392867,0.7983870967741935
30.88257354779565,0.8057184750733137
30.892574381198436,0.7971652003910068
30.902575214601217,0.8008308895405669
30.912576048004002,0.8106060606060606
30.922576881406787,0.7983870967741935
30.932577714809568,0.7983870967741935
30.942578548212353,0.7983870967741935
30.952579381615138,0.8032746823069403
30.96258021501792,0.8057184750733137
30.972581048420704,0.7971652003910068
30.98258188182349,0.8008308895405669
30.99258271522627,0.7934995112414467
31.002583548629055,0.7983870967741935
31.012584382031836,0.7983870967741935
31.02258521543462,0.7934995112414467
31.032586048837405,0.8008308895405669
31.042586882240187,0.8020527859237536
31.05258771564297,0.8057184750733137
31.062588549045756,0.8106060606060606
31.072589382448538,0.7983870967741935
31.082590215851322,0.7934995112414467
31.092591049254107,0.7947214076246334
31.10259188265689,0.7934995112414467
31.112592716059673,0.8057184750733137
31.122593549462458,0.7971652003910068
31.13259438286524,0.8008308895405669
31.142595216268024,0.8057184750733137
31.15259604967081,0.7983870967741935
31.16259688307359,0.7934995112414467
31.172597716476375,0.7996089931573802
31.18259854987916,0.7934995112414467
31.19259938328194,0.8057184750733137
31.202600216684726,0.8020527859237536
31.21260105008751,0.8106060606060606
31.22260188349029,0.813049853372434
31.232602716893076,0.8032746823069403
31.24260355029586,0.8032746823069403
31.252604383698642,0.8081622678396871
31.262605217101427,0.7983870967741935
31.272606050504212,0.8106060606060606
31.282606883906993,0.8020527859237536
31.292607717309778,0.8106060606060606
31.30260855071256,0.8106060606060606
31.312609384115344,0.8032746823069403
31.32261021751813,0.7934995112414467
31.33261105092091,0.7996089931573802
31.342611884323695,0.7983870967741935
31.35261271772648,0.8057184750733137
31.36261355112926,0.7996089931573802
31.372614384532046,0.8057184750733137
31.38261521793483,0.8081622678396871
31.392616051337612,0.7934995112414467
31.402616884740397,0.813049853372434
31.41261771814318,0.8179374389051808
31.422618551545963,0.8399315738025415
31.432619384948747,0.8387096774193548
31.442620218351532,0.8399315738025415
31.452621051754313,0.8313782991202345
31.4626218851571,0.8326001955034212
31.472622718559883,0.8081622678396871
31.482623551962664,0.7886119257086999
31.49262438536545,0.7934995112414467
31.502625218768234,0.8106060606060606
31.512626052171015,0.8020527859237536
31.5226268855738,0.8106060606060606
31.532627718976585,0.8106060606060606
31.542628552379366,0.7996089931573802
31.55262938578215,0.7996089931573802
31.562630219184935,0.8081622678396871
31.572631052587717,0.8032746823069403
31.5826318859905,0.8106060606060606
31.592632719393283,0.8167155425219941
31.602633552796068,0.8106060606060606
31.612634386198852,0.813049853372434
31.622635219601634,0.8081622678396871
31.63263605300442,0.8081622678396871
31.642636886407203,0.8081622678396871
31.652637719809984,0.8081622678396871
31.66263855321277,0.8203812316715542
31.672639386615554,0.8167155425219941
31.682640220018335,0.8203812316715542
31.69264105342112,0.8301564027370478
31.702641886823905,0.8179374389051808
31.712642720226686,0.8142717497556207
31.72264355362947,0.825268817204301
31.732644387032256,0.8179374389051808
31.742645220435037,0.8301564027370478
31.75264605383782,0.8264907135874877
31.762646887240606,0.8301564027370478
31.772647720643388,0.8423753665689149
31.782648554046173,0.8326001955034212
31.792649387448957,0.8277126099706744
31.80265022085174,0.8326001955034212
31.812651054254523,0.8289345063538611
31.822651887657308,0.8313782991202345
31.83265272106009,0.8264907135874877
31.842653554462874,0.8301564027370478
31.852654387865655,0.8179374389051808
31.86265522126844,0.813049853372434
31.872656054671225,0.8179374389051808
31.882656888074006,0.8032746823069403
31.89265772147679,0.813049853372434
31.902658554879576,0.8093841642228738
31.912659388282357,0.8106060606060606
31.922660221685142,0.8118279569892473
31.932661055087927,0.8081622678396871
31.942661888490708,0.804496578690127
31.952662721893493,0.8032746823069403
31.962663555296277,0.8032746823069403
31.97266438869906,0.8106060606060606
31.982665222101843,0.804496578690127
31.99266605550463,0.8106060606060606
32.00266688890741,0.8106060606060606
32.01266772231019,0.7996089931573802
32.022668555712976,0.8032746823069403
32.03266938911576,0.8081622678396871
32.042670222518545,0.8032746823069403
32.05267105592133,0.8106060606060606
