x,y
0.0,0.5906647116324536
0.010000833402783566,0.5869990224828935
0.02000166680556713,0.5857771260997068
0.0300025002083507,0.5955522971652004
0.04000333361113426,0.593108504398827
0.05000416701391783,0.5906647116324536
0.0600050004167014,0.593108504398827
0.07000583381948496,0.5906647116324536
0.08000666722226853,0.5955522971652004
0.0900075006250521,0.6004398826979472
0.10000833402783565,0.5955522971652004
0.11000916743061923,0.605327468230694
0.1200100008334028,0.5979960899315738
0.13001083423618637,0.5992179863147605
0.1400116676389699,0.5979960899315738
0.15001250104175348,0.6077712609970675
0.16001333444453705,0.605327468230694
0.17001416784732062,0.6041055718475073
0.1800150012501042,0.6065493646138808
0.19001583465288774,0.6175464320625611
0.2000166680556713,0.6077712609970675
0.21001750145845488,0.6077712609970675
0.22001833486123845,0.6077712609970675
0.23001916826402202,0.6041055718475073
0.2400200016668056,0.6248778103616813
0.25002083506958916,0.6212121212121212
0.26002166847237274,0.6187683284457478
0.27002250187515625,0.6248778103616813
0.2800233352779398,0.6089931573802542
0.2900241686807234,0.613880742913001
0.30002500208350696,0.6224340175953079
0.31002583548629054,0.6126588465298143
0.3200266688890741,0.6273216031280547
0.3300275022918577,0.626099706744868
0.34002833569464125,0.6285434995112414
0.3500291690974248,0.634652981427175
0.3600300025002084,0.6322091886608016
0.37003083590299196,0.6297653958944281
0.3800316693057755,0.6297653958944281
0.39003250270855905,0.6236559139784946
0.4000333361113426,0.634652981427175
0.4100341695141262,0.626099706744868
0.42003500291690976,0.6444281524926686
0.43003583631969333,0.6383186705767351
0.4400366697224769,0.6322091886608016
0.4500375031252605,0.6297653958944281
0.46003833652804405,0.6297653958944281
0.4700391699308276,0.6236559139784946
0.4800400033336112,0.634652981427175
0.4900408367363947,0.6334310850439883
0.5000416701391783,0.6370967741935484
0.5100425035419619,0.6444281524926686
0.5200433369447455,0.6370967741935484
0.530044170347529,0.6322091886608016
0.5400450037503125,0.6419843597262952
0.5500458371530961,0.6517595307917888
0.5600466705558796,0.6737536656891495
0.5700475039586632,0.679863147605083
0.5800483373614468,0.6884164222873901
0.5900491707642304,0.6737536656891495
0.6000500041670139,0.6713098729227761
0.6100508375697975,0.6713098729227761
0.6200516709725811,0.6322091886608016
0.6300525043753646,0.6383186705767351
0.6400533377781482,0.6493157380254154
0.6500541711809318,0.655425219941349
0.6600550045837154,0.6493157380254154
0.6700558379864989,0.6639784946236559
0.6800566713892825,0.6480938416422287
0.6900575047920661,0.6578690127077224
0.7000583381948496,0.6480938416422287
0.7100591715976332,0.6639784946236559
0.7200600050004168,0.6603128054740958
0.7300608384032004,0.6639784946236559
0.7400616718059839,0.6664222873900293
0.7500625052087674,0.6627565982404692
0.760063338611551,0.6627565982404692
0.7700641720143345,0.6615347018572825
0.7800650054171181,0.6566471163245357
0.7900658388199017,0.6737536656891495
0.8000666722226852,0.6786412512218963
0.8100675056254688,0.667644183773216
0.8200683390282524,0.6761974584555229
0.830069172431036,0.6810850439882697
0.8400700058338195,0.6713098729227761
0.8500708392366031,0.6810850439882697
0.8600716726393867,0.6810850439882697
0.8700725060421702,0.6884164222873901
0.8800733394449538,0.6847507331378299
0.8900741728477374,0.6933040078201369
0.900075006250521,0.6933040078201369
0.9100758396533045,0.6761974584555229
0.9200766730560881,0.6908602150537635
0.9300775064588717,0.6957478005865103
0.9400783398616552,0.6871945259042033
0.9500791732644388,0.7030791788856305
0.9600800066672224,0.6823069403714564
0.9700808400700058,0.6884164222873901
0.9800816734727894,0.696969696969697
0.990082506875573,0.6908602150537635
1.0000833402783567,0.6725317693059628
1.0100841736811401,0.6713098729227761
1.0200850070839238,0.6761974584555229
1.0300858404867073,0.6700879765395894
1.040086673889491,0.6737536656891495
1.0500875072922744,0.6737536656891495
1.060088340695058,0.6713098729227761
1.0700891740978415,0.6627565982404692
1.080090007500625,0.6725317693059628
1.0900908409034087,0.6713098729227761
1.1000916743061921,0.6737536656891495
1.1100925077089758,0.6749755620723362
1.1200933411117593,0.6737536656891495
1.130094174514543,0.6761974584555229
1.1400950079173264,0.6713098729227761
1.1500958413201101,0.6774193548387096
1.1600966747228936,0.6627565982404692
1.1700975081256773,0.6835288367546432
1.1800983415284607,0.679863147605083
1.1900991749312444,0.6774193548387096
1.2001000083340279,0.6835288367546432
1.2101008417368115,0.6761974584555229
1.220101675139595,0.6725317693059628
1.2301025085423787,0.6713098729227761
1.2401033419451621,0.6713098729227761
1.2501041753479458,0.6884164222873901
1.2601050087507293,0.679863147605083
1.270105842153513,0.6835288367546432
1.2801066755562964,0.6835288367546432
1.2901075089590799,0.6774193548387096
1.3001083423618636,0.6823069403714564
1.310109175764647,0.6823069403714564
1.3201100091674307,0.6835288367546432
1.3301108425702142,0.6847507331378299
1.3401116759729979,0.6835288367546432
1.3501125093757813,0.6884164222873901
1.360113342778565,0.6810850439882697
1.3701141761813485,0.6761974584555229
1.3801150095841321,0.6774193548387096
1.3901158429869156,0.6725317693059628
1.4001166763896993,0.6835288367546432
1.4101175097924827,0.679863147605083
1.4201183431952664,0.6774193548387096
1.4301191765980499,0.6884164222873901
1.4401200100008336,0.6761974584555229
1.450120843403617,0.6761974584555229
1.4601216768064007,0.6810850439882697
1.4701225102091842,0.6725317693059628
1.4801233436119678,0.6933040078201369
1.4901241770147513,0.6847507331378299
1.5001250104175348,0.6933040078201369
1.5101258438203184,0.6933040078201369
1.520126677223102,0.6871945259042033
1.5301275106258856,0.6823069403714564
1.540128344028669,0.6908602150537635
1.5501291774314527,0.6774193548387096
1.5601300108342362,0.6884164222873901
1.5701308442370199,0.6847507331378299
1.5801316776398033,0.6835288367546432
1.590132511042587,0.6884164222873901
1.6001333444453705,0.6810850439882697
1.6101341778481542,0.6725317693059628
1.6201350112509376,0.6761974584555229
1.6301358446537213,0.6835288367546432
1.6401366780565048,0.679863147605083
1.6501375114592884,0.6737536656891495
1.660138344862072,0.6957478005865103
1.6701391782648556,0.6957478005865103
1.680140011667639,0.7104105571847508
1.6901408450704227,0.7165200391006843
1.7001416784732062,0.7152981427174976
1.7101425118759896,0.7128543499511242
1.7201433452787733,0.6994134897360704
1.7301441786815568,0.7030791788856305
1.7401450120843405,0.6884164222873901
1.750145845487124,0.6761974584555229
1.7601466788899076,0.6713098729227761
1.770147512292691,0.6908602150537635
1.7801483456954748,0.6823069403714564
1.7901491790982582,0.6884164222873901
1.800150012501042,0.6896383186705768
1.8101508459038254,0.6933040078201369
1.820151679306609,0.6933040078201369
1.8301525127093925,0.6871945259042033
1.8401533461121762,0.6859726295210166
1.8501541795149596,0.6908602150537635
1.8601550129177433,0.6823069403714564
1.8701558463205268,0.6933040078201369
1.8801566797233105,0.6945259042033236
1.890157513126094,0.6933040078201369
1.9001583465288776,0.6933040078201369
1.910159179931661,0.6908602150537635
1.9201600133344447,0.6908602150537635
1.9301608467372282,0.6957478005865103
1.9401616801400117,0.6957478005865103
1.9501625135427954,0.6994134897360704
1.9601633469455788,0.7030791788856305
1.9701641803483625,0.7030791788856305
1.980165013751146,0.696969696969697
1.9901658471539296,0.6957478005865103
2.0001666805567133,0.7152981427174976
2.0101675139594968,0.696969696969697
2.0201683473622802,0.7128543499511242
2.0301691807650637,0.7091886608015641
2.0401700141678476,0.7128543499511242
2.050170847570631,0.7165200391006843
2.0601716809734145,0.7104105571847508
2.070172514376198,0.7079667644183774
2.080173347778982,0.7104105571847508
2.0901741811817653,0.6957478005865103
2.100175014584549,0.7067448680351907
2.1101758479873323,0.6994134897360704
2.120176681390116,0.7030791788856305
2.1301775147928996,0.6933040078201369
2.140178348195683,0.6908602150537635
2.1501791815984665,0.6761974584555229
2.16018001500125,0.6810850439882697
2.170180848404034,0.6823069403714564
2.1801816818068174,0.6884164222873901
2.190182515209601,0.6847507331378299
2.2001833486123843,0.6933040078201369
2.210184182015168,0.6933040078201369
2.2201850154179517,0.6810850439882697
2.230185848820735,0.6810850439882697
2.2401866822235186,0.6859726295210166
2.2501875156263025,0.6810850439882697
2.260188349029086,0.679863147605083
2.2701891824318694,0.6933040078201369
2.280190015834653,0.6884164222873901
2.2901908492374368,0.6871945259042033
2.3001916826402202,0.6810850439882697
2.3101925160430037,0.6859726295210166
2.320193349445787,0.6774193548387096
2.330194182848571,0.6933040078201369
2.3401950162513545,0.6847507331378299
2.350195849654138,0.6933040078201369
2.3601966830569214,0.6933040078201369
2.370197516459705,0.6871945259042033
2.380198349862489,0.6774193548387096
2.3901991832652723,0.6908602150537635
2.4002000166680557,0.6810850439882697
2.410200850070839,0.6884164222873901
2.420201683473623,0.679863147605083
2.4302025168764065,0.6884164222873901
2.44020335027919,0.6884164222873901
2.4502041836819735,0.6859726295210166
2.4602050170847574,0.6810850439882697
2.470205850487541,0.6859726295210166
2.4802066838903243,0.6810850439882697
2.4902075172931077,0.6835288367546432
2.5002083506958916,0.6847507331378299
2.510209184098675,0.6884164222873901
2.5202100175014586,0.6835288367546432
2.530210850904242,0.6908602150537635
2.540211684307026,0.6859726295210166
2.5502125177098094,0.6810850439882697
2.560213351112593,0.6884164222873901
2.5702141845153763,0.679863147605083
2.5802150179181598,0.6884164222873901
2.5902158513209437,0.6884164222873901
2.600216684723727,0.6810850439882697
2.6102175181265106,0.6761974584555229
2.620218351529294,0.6859726295210166
2.630219184932078,0.6823069403714564
2.6402200183348614,0.6884164222873901
2.650220851737645,0.6823069403714564
2.6602216851404283,0.6884164222873901
2.6702225185432122,0.6835288367546432
2.6802233519459957,0.6908602150537635
2.690224185348779,0.6823069403714564
2.7002250187515626,0.6810850439882697
2.7102258521543465,0.6823069403714564
2.72022668555713,0.6933040078201369
2.7302275189599134,0.679863147605083
2.740228352362697,0.6933040078201369
2.750229185765481,0.6945259042033236
2.7602300191682643,0.6810850439882697
2.7702308525710477,0.6761974584555229
2.780231685973831,0.6823069403714564
2.7902325193766147,0.6713098729227761
2.8002333527793986,0.6835288367546432
2.810234186182182,0.6884164222873901
2.8202350195849655,0.6933040078201369
2.830235852987749,0.6908602150537635
2.840236686390533,0.6725317693059628
2.8502375197933163,0.6823069403714564
2.8602383531960998,0.6725317693059628
2.870239186598883,0.6933040078201369
2.880240020001667,0.7018572825024438
2.8902408534044506,0.7226295210166178
2.900241686807234,0.7226295210166178
2.9102425202100175,0.7165200391006843
2.9202433536128014,0.7018572825024438
2.930244187015585,0.7104105571847508
2.9402450204183683,0.6823069403714564
2.950245853821152,0.6639784946236559
2.9602466872239357,0.6847507331378299
2.970247520626719,0.6884164222873901
2.9802483540295026,0.6933040078201369
2.990249187432286,0.6810850439882697
3.0002500208350695,0.6810850439882697
3.0102508542378534,0.6810850439882697
3.020251687640637,0.6810850439882697
3.0302525210434204,0.6884164222873901
3.040253354446204,0.6823069403714564
3.0502541878489877,0.6884164222873901
3.060255021251771,0.6933040078201369
3.0702558546545546,0.6859726295210166
3.080256688057338,0.6908602150537635
3.090257521460122,0.6871945259042033
3.1002583548629055,0.6774193548387096
3.110259188265689,0.6933040078201369
3.1202600216684724,0.6896383186705768
3.1302608550712563,0.6933040078201369
3.1402616884740397,0.7030791788856305
3.150262521876823,0.6908602150537635
3.1602633552796067,0.6810850439882697
3.1702641886823906,0.6957478005865103
3.180265022085174,0.6920821114369502
3.1902658554879575,0.7030791788856305
3.200266688890741,0.6994134897360704
3.2102675222935244,0.7067448680351907
3.2202683556963083,0.7030791788856305
3.2302691890990918,0.7006353861192571
3.2402700225018752,0.7116324535679375
3.2502708559046587,0.7104105571847508
3.2602716893074426,0.705522971652004
3.270272522710226,0.7091886608015641
3.2802733561130095,0.7043010752688172
3.290274189515793,0.7128543499511242
3.300275022918577,0.7006353861192571
3.3102758563213603,0.6957478005865103
3.320276689724144,0.6957478005865103
3.3302775231269273,0.6823069403714564
3.340278356529711,0.6884164222873901
3.3502791899324946,0.6847507331378299
3.360280023335278,0.6835288367546432
3.3702808567380615,0.6823069403714564
3.3802816901408455,0.6761974584555229
3.390282523543629,0.6774193548387096
3.4002833569464124,0.6810850439882697
3.410284190349196,0.6835288367546432
3.4202850237519793,0.6700879765395894
3.430285857154763,0.6835288367546432
3.4402866905575467,0.6761974584555229
3.45028752396033,0.6810850439882697
3.4602883573631136,0.6761974584555229
3.4702891907658975,0.6774193548387096
3.480290024168681,0.6713098729227761
3.4902908575714644,0.679863147605083
3.500291690974248,0.6884164222873901
3.5102925243770318,0.6884164222873901
3.5202933577798152,0.6761974584555229
3.5302941911825987,0.6713098729227761
3.540295024585382,0.6761974584555229
3.550295857988166,0.6774193548387096
3.5602966913909495,0.6884164222873901
3.570297524793733,0.6786412512218963
3.5802983581965164,0.6761974584555229
3.5902991915993003,0.6774193548387096
3.600300025002084,0.6761974584555229
3.6103008584048673,0.6725317693059628
3.6203016918076507,0.6761974584555229
3.630302525210434,0.6761974584555229
3.640303358613218,0.6786412512218963
3.6503041920160015,0.6835288367546432
3.660305025418785,0.6835288367546432
3.6703058588215685,0.6774193548387096
3.6803066922243524,0.6725317693059628
3.690307525627136,0.6774193548387096
3.7003083590299193,0.6761974584555229
3.7103091924327027,0.6737536656891495
3.7203100258354866,0.679863147605083
3.73031085923827,0.6737536656891495
3.7403116926410536,0.6835288367546432
3.750312526043837,0.6761974584555229
3.760313359446621,0.6725317693059628
3.7703141928494044,0.6761974584555229
3.780315026252188,0.6713098729227761
3.7903158596549713,0.6749755620723362
3.800316693057755,0.679863147605083
3.8103175264605387,0.6749755620723362
3.820318359863322,0.6835288367546432
3.8303191932661056,0.6725317693059628
3.8403200266688895,0.6725317693059628
3.850320860071673,0.6713098729227761
3.8603216934744564,0.6713098729227761
3.87032252687724,0.6737536656891495
3.8803233602800233,0.679863147605083
3.8903241936828072,0.6737536656891495
3.9003250270855907,0.6884164222873901
3.910325860488374,0.6713098729227761
3.9203266938911576,0.6688660801564027
3.9303275272939415,0.6761974584555229
3.940328360696725,0.6725317693059628
3.9503291940995084,0.6835288367546432
3.960330027502292,0.679863147605083
3.970330860905076,0.6774193548387096
3.9803316943078593,0.6835288367546432
3.9903325277106427,0.6774193548387096
4.000333361113427,0.6713098729227761
4.01033419451621,0.6761974584555229
4.0203350279189936,0.6761974584555229
4.0303358613217775,0.6737536656891495
4.0403366947245605,0.6725317693059628
4.050337528127344,0.6749755620723362
4.060338361530127,0.6835288367546432
4.070339194932911,0.6713098729227761
4.080340028335695,0.6713098729227761
4.090340861738478,0.6713098729227761
4.100341695141262,0.6725317693059628
4.110342528544045,0.6737536656891495
4.120343361946829,0.667644183773216
4.130344195349613,0.6749755620723362
4.140345028752396,0.6884164222873901
4.15034586215518,0.6957478005865103
4.160346695557964,0.7104105571847508
4.170347528960747,0.7104105571847508
4.180348362363531,0.7006353861192571
4.190349195766314,0.696969696969697
4.200350029169098,0.6994134897360704
4.2103508625718815,0.6884164222873901
4.2203516959746645,0.6737536656891495
4.230352529377448,0.6713098729227761
4.240353362780232,0.6713098729227761
4.250354196183015,0.6713098729227761
4.260355029585799,0.6713098729227761
4.270355862988582,0.6835288367546432
4.280356696391366,0.679863147605083
4.29035752979415,0.6737536656891495
4.300358363196933,0.6835288367546432
4.310359196599717,0.6761974584555229
4.3203600300025,0.6810850439882697
4.330360863405284,0.6761974584555229
4.340361696808068,0.6725317693059628
4.350362530210851,0.6835288367546432
4.360363363613635,0.679863147605083
4.370364197016419,0.6835288367546432
4.380365030419202,0.6884164222873901
4.390365863821986,0.6810850439882697
4.400366697224769,0.6761974584555229
4.4103675306275525,0.6761974584555229
4.420368364030336,0.6810850439882697
4.430369197433119,0.6884164222873901
4.440370030835903,0.6847507331378299
4.450370864238687,0.6884164222873901
4.46037169764147,0.7030791788856305
4.470372531044254,0.6957478005865103
4.480373364447037,0.6859726295210166
4.490374197849821,0.6957478005865103
4.500375031252605,0.6908602150537635
4.510375864655388,0.7030791788856305
4.520376698058172,0.6994134897360704
4.530377531460955,0.7030791788856305
4.540378364863739,0.7030791788856305
4.550379198266523,0.7006353861192571
4.560380031669306,0.6957478005865103
4.57038086507209,0.696969696969697
4.5803816984748735,0.6908602150537635
4.5903825318776565,0.6933040078201369
4.6003833652804405,0.6847507331378299
4.6103841986832235,0.6774193548387096
4.620385032086007,0.6884164222873901
4.630385865488791,0.6761974584555229
4.640386698891574,0.6713098729227761
4.650387532294358,0.6761974584555229
4.660388365697142,0.6688660801564027
4.670389199099925,0.6664222873900293
4.680390032502709,0.667644183773216
4.690390865905492,0.6737536656891495
4.700391699308276,0.6761974584555229
4.71039253271106,0.6713098729227761
4.720393366113843,0.6627565982404692
4.730394199516627,0.6615347018572825
4.74039503291941,0.6737536656891495
4.750395866322194,0.6700879765395894
4.760396699724978,0.6737536656891495
4.770397533127761,0.6835288367546432
4.7803983665305445,0.6713098729227761
4.790399199933328,0.6713098729227761
4.800400033336111,0.6713098729227761
4.810400866738895,0.6725317693059628
4.820401700141678,0.6737536656891495
4.830402533544462,0.6725317693059628
4.840403366947246,0.6737536656891495
4.850404200350029,0.6761974584555229
4.860405033752813,0.6725317693059628
4.870405867155597,0.6713098729227761
4.88040670055838,0.6688660801564027
4.890407533961164,0.6737536656891495
4.900408367363947,0.6725317693059628
4.910409200766731,0.6737536656891495
4.920410034169515,0.6737536656891495
4.930410867572298,0.6713098729227761
4.940411700975082,0.6713098729227761
4.950412534377865,0.6713098729227761
4.960413367780649,0.6627565982404692
4.9704142011834325,0.6737536656891495
4.9804150345862155,0.6700879765395894
4.990415867988999,0.667644183773216
5.000416701391783,0.6761974584555229
5.010417534794566,0.6713098729227761
5.02041836819735,0.6627565982404692
5.030419201600133,0.6615347018572825
5.040420035002917,0.6688660801564027
5.050420868405701,0.6664222873900293
5.060421701808484,0.6700879765395894
5.070422535211268,0.6652003910068426
5.080423368614052,0.6688660801564027
5.090424202016835,0.6713098729227761
5.100425035419619,0.6627565982404692
5.110425868822402,0.6713098729227761
5.120426702225186,0.6615347018572825
5.13042753562797,0.6737536656891495
5.140428369030753,0.6652003910068426
5.1504292024335365,0.6639784946236559
5.1604300358363195,0.6761974584555229
5.1704308692391034,0.6688660801564027
5.180431702641887,0.6566471163245357
5.19043253604467,0.6688660801564027
5.200433369447454,0.6688660801564027
5.210434202850238,0.6639784946236559
5.220435036253021,0.6700879765395894
5.230435869655805,0.6737536656891495
5.240436703058588,0.6761974584555229
5.250437536461372,0.6688660801564027
5.260438369864156,0.6627565982404692
5.270439203266939,0.6688660801564027
5.280440036669723,0.6688660801564027
5.290440870072507,0.6749755620723362
5.30044170347529,0.6700879765395894
5.310442536878074,0.6737536656891495
5.320443370280857,0.6737536656891495
5.330444203683641,0.6688660801564027
5.3404450370864245,0.6578690127077224
5.3504458704892075,0.6688660801564027
5.360446703891991,0.6578690127077224
5.370447537294774,0.6639784946236559
5.380448370697558,0.6652003910068426
5.390449204100342,0.6578690127077224
5.400450037503125,0.6737536656891495
5.410450870905909,0.6713098729227761
5.420451704308693,0.6713098729227761
5.430452537711476,0.6761974584555229
5.44045337111426,0.6908602150537635
5.450454204517043,0.7128543499511242
5.460455037919827,0.7018572825024438
5.470455871322611,0.6933040078201369
5.480456704725394,0.6884164222873901
5.490457538128178,0.6957478005865103
5.500458371530962,0.646871945259042
5.510459204933745,0.6578690127077224
5.5204600383365285,0.6615347018572825
5.530460871739312,0.6737536656891495
5.5404617051420955,0.6652003910068426
5.550462538544879,0.6737536656891495
5.560463371947662,0.6737536656891495
5.570464205350446,0.6713098729227761
5.580465038753229,0.6615347018572825
5.590465872156013,0.6688660801564027
5.600466705558797,0.6688660801564027
5.61046753896158,0.6737536656891495
5.620468372364364,0.679863147605083
5.630469205767148,0.6737536656891495
5.640470039169931,0.6737536656891495
5.650470872572715,0.6688660801564027
5.660471705975498,0.6713098729227761
5.670472539378282,0.6713098729227761
5.680473372781066,0.6713098729227761
5.690474206183849,0.6835288367546432
5.700475039586633,0.6700879765395894
5.7104758729894165,0.6774193548387096
5.7204767063921995,0.6884164222873901
5.730477539794983,0.6810850439882697
5.740478373197766,0.6725317693059628
5.75047920660055,0.6823069403714564
5.760480040003334,0.6774193548387096
5.770480873406117,0.6884164222873901
5.780481706808901,0.6920821114369502
5.790482540211684,0.6933040078201369
5.800483373614468,0.6933040078201369
5.810484207017252,0.6908602150537635
5.820485040420035,0.6908602150537635
5.830485873822819,0.6908602150537635
5.840486707225603,0.6920821114369502
5.850487540628386,0.6884164222873901
5.86048837403117,0.6871945259042033
5.870489207433953,0.6884164222873901
5.880490040836737,0.6835288367546432
5.890490874239521,0.6761974584555229
5.900491707642304,0.6713098729227761
5.9104925410450875,0.6713098729227761
5.920493374447871,0.6627565982404692
5.930494207850654,0.6639784946236559
5.940495041253438,0.6652003910068426
5.950495874656221,0.6639784946236559
5.960496708059005,0.6737536656891495
5.970497541461789,0.6517595307917888
5.980498374864572,0.6615347018572825
5.990499208267356,0.6615347018572825
6.000500041670139,0.6639784946236559
6.010500875072923,0.6603128054740958
6.020501708475707,0.6652003910068426
6.03050254187849,0.6737536656891495
6.040503375281274,0.6627565982404692
6.050504208684058,0.6578690127077224
6.060505042086841,0.6615347018572825
6.070505875489625,0.6517595307917888
6.080506708892408,0.6639784946236559
6.0905075422951915,0.6603128054740958
6.100508375697975,0.6639784946236559
6.1105092091007585,0.6737536656891495
6.120510042503542,0.6615347018572825
6.130510875906326,0.6529814271749755
6.140511709309109,0.6578690127077224
6.150512542711893,0.6566471163245357
6.160513376114676,0.6652003910068426
6.17051420951746,0.6627565982404692
6.180515042920244,0.6639784946236559
6.190515876323027,0.6664222873900293
6.200516709725811,0.6566471163245357
6.210517543128594,0.6517595307917888
6.220518376531378,0.6615347018572825
6.230519209934162,0.6566471163245357
6.240520043336945,0.6639784946236559
6.250520876739729,0.6603128054740958
6.260521710142513,0.655425219941349
6.270522543545296,0.6664222873900293
6.2805233769480795,0.6615347018572825
6.2905242103508625,0.6578690127077224
6.300525043753646,0.6688660801564027
6.31052587715643,0.6615347018572825
6.320526710559213,0.6639784946236559
6.330527543961997,0.6603128054740958
6.340528377364781,0.6639784946236559
6.350529210767564,0.6639784946236559
6.360530044170348,0.6566471163245357
6.370530877573131,0.6615347018572825
6.380531710975915,0.6566471163245357
6.390532544378699,0.6517595307917888
6.400533377781482,0.6639784946236559
6.410534211184266,0.6603128054740958
6.420535044587049,0.6639784946236559
6.430535877989833,0.6664222873900293
6.440536711392617,0.6615347018572825
6.4505375447954,0.6578690127077224
6.4605383781981836,0.6615347018572825
6.4705392116009675,0.6578690127077224
6.4805400450037505,0.667644183773216
6.490540878406534,0.6639784946236559
6.500541711809317,0.6737536656891495
6.510542545212101,0.6615347018572825
6.520543378614885,0.6566471163245357
6.530544212017668,0.6566471163245357
6.540545045420452,0.6517595307917888
6.550545878823236,0.655425219941349
6.560546712226019,0.655425219941349
6.570547545628803,0.6639784946236559
6.580548379031586,0.6639784946236559
6.59054921243437,0.6517595307917888
6.600550045837154,0.646871945259042
6.610550879239937,0.6615347018572825
6.620551712642721,0.6737536656891495
6.630552546045504,0.6847507331378299
6.640553379448288,0.6957478005865103
6.6505542128510715,0.705522971652004
6.6605550462538545,0.6859726295210166
6.670555879656638,0.6713098729227761
6.680556713059422,0.6859726295210166
6.690557546462205,0.6432062561094819
6.700558379864989,0.6444281524926686
6.710559213267772,0.6603128054740958
6.720560046670556,0.6639784946236559
6.73056088007334,0.6737536656891495
6.740561713476123,0.6615347018572825
6.750562546878907,0.6529814271749755
6.760563380281691,0.6615347018572825
6.770564213684474,0.6652003910068426
6.780565047087258,0.6652003910068426
6.790565880490041,0.6639784946236559
6.800566713892825,0.6737536656891495
6.810567547295609,0.6627565982404692
6.820568380698392,0.6615347018572825
6.830569214101176,0.6688660801564027
6.840570047503959,0.6627565982404692
6.8505708809067425,0.6664222873900293
6.860571714309526,0.6652003910068426
6.870572547712309,0.6639784946236559
6.880573381115093,0.6737536656891495
6.890574214517877,0.6688660801564027
6.90057504792066,0.6688660801564027
6.910575881323444,0.6615347018572825
6.920576714726227,0.6737536656891495
6.930577548129011,0.679863147605083
6.940578381531795,0.6774193548387096
6.950579214934578,0.6933040078201369
6.960580048337362,0.6774193548387096
6.970580881740146,0.6774193548387096
6.980581715142929,0.6823069403714564
6.990582548545713,0.6810850439882697
7.000583381948496,0.6933040078201369
7.01058421535128,0.6847507331378299
7.0205850487540635,0.6884164222873901
7.0305858821568465,0.6835288367546432
7.0405867155596304,0.6725317693059628
7.0505875489624135,0.6688660801564027
7.060588382365197,0.6713098729227761
7.070589215767981,0.6615347018572825
7.080590049170764,0.6639784946236559
7.090590882573548,0.6590909090909091
7.100591715976332,0.6639784946236559
7.110592549379115,0.6737536656891495
7.120593382781899,0.6566471163245357
7.130594216184682,0.6529814271749755
7.140595049587466,0.6529814271749755
7.15059588299025,0.6480938416422287
7.160596716393033,0.6566471163245357
7.170597549795817,0.6603128054740958
7.180598383198601,0.6542033235581622
7.190599216601384,0.6639784946236559
7.200600050004168,0.6517595307917888
7.210600883406951,0.6529814271749755
7.2206017168097345,0.6480938416422287
7.230602550212518,0.6542033235581622
7.240603383615301,0.655425219941349
7.250604217018085,0.655425219941349
7.260605050420868,0.6566471163245357
7.270605883823652,0.6615347018572825
7.280606717226436,0.6529814271749755
7.290607550629219,0.6566471163245357
7.300608384032003,0.6529814271749755
7.310609217434787,0.6639784946236559
7.32061005083757,0.6603128054740958
7.330610884240354,0.6639784946236559
7.340611717643137,0.6639784946236559
7.350612551045921,0.6566471163245357
7.360613384448705,0.6432062561094819
7.370614217851488,0.6615347018572825
7.380615051254272,0.646871945259042
7.3906158846570555,0.655425219941349
7.400616718059839,0.6590909090909091
7.4106175514626225,0.655425219941349
7.4206183848654055,0.6542033235581622
7.430619218268189,0.6566471163245357
7.440620051670973,0.646871945259042
7.450620885073756,0.6517595307917888
7.46062171847654,0.646871945259042
7.470622551879323,0.655425219941349
7.480623385282107,0.6590909090909091
7.490624218684891,0.6542033235581622
7.500625052087674,0.6639784946236559
7.510625885490458,0.6517595307917888
7.520626718893242,0.6566471163245357
7.530627552296025,0.646871945259042
7.540628385698809,0.6578690127077224
7.550629219101592,0.6505376344086021
7.560630052504376,0.6566471163245357
7.57063088590716,0.6639784946236559
7.580631719309943,0.6517595307917888
7.5906325527127265,0.6432062561094819
7.60063338611551,0.6566471163245357
7.610634219518293,0.6419843597262952
7.620635052921077,0.6578690127077224
7.63063588632386,0.6505376344086021
7.640636719726644,0.6566471163245357
7.650637553129428,0.6639784946236559
7.660638386532211,0.6529814271749755
7.670639219934995,0.6529814271749755
7.680640053337779,0.6566471163245357
7.690640886740562,0.6517595307917888
7.700641720143346,0.6639784946236559
7.710642553546129,0.6505376344086021
7.720643386948913,0.6578690127077224
7.730644220351697,0.6639784946236559
7.74064505375448,0.6517595307917888
7.750645887157264,0.6480938416422287
7.760646720560047,0.6517595307917888
7.770647553962831,0.646871945259042
7.7806483873656145,0.6542033235581622
7.7906492207683975,0.6505376344086021
7.800650054171181,0.655425219941349
7.810650887573965,0.6566471163245357
7.820651720976748,0.6480938416422287
7.830652554379532,0.6480938416422287
7.840653387782315,0.6517595307917888
7.850654221185099,0.6639784946236559
7.860655054587883,0.679863147605083
7.870655887990666,0.7030791788856305
7.88065672139345,0.696969696969697
7.890657554796234,0.6725317693059628
7.900658388199017,0.6713098729227761
7.910659221601801,0.6713098729227761
7.920660055004584,0.6322091886608016
7.930660888407368,0.6493157380254154
7.940661721810152,0.6529814271749755
7.950662555212935,0.6578690127077224
7.9606633886157185,0.6566471163245357
7.9706642220185016,0.6566471163245357
7.9806650554212855,0.6480938416422287
7.990665888824069,0.6529814271749755
8.000666722226853,0.6480938416422287
8.010667555629636,0.6578690127077224
8.02066838903242,0.6603128054740958
8.030669222435204,0.6542033235581622
8.040670055837987,0.6639784946236559
8.05067088924077,0.6566471163245357
8.060671722643555,0.6566471163245357
8.070672556046338,0.6566471163245357
8.080673389449121,0.646871945259042
8.090674222851904,0.6664222873900293
8.100675056254689,0.6652003910068426
8.110675889657472,0.6652003910068426
8.120676723060255,0.6664222873900293
8.13067755646304,0.6615347018572825
8.140678389865823,0.6578690127077224
8.150679223268606,0.6627565982404692
8.16068005667139,0.6713098729227761
8.170680890074173,0.6737536656891495
8.180681723476956,0.667644183773216
8.190682556879741,0.6737536656891495
8.200683390282524,0.6835288367546432
8.210684223685307,0.6713098729227761
8.22068505708809,0.6810850439882697
8.230685890490875,0.6810850439882697
8.240686723893658,0.6713098729227761
8.250687557296441,0.6774193548387096
8.260688390699226,0.679863147605083
8.270689224102009,0.6835288367546432
8.280690057504792,0.6761974584555229
8.290690890907577,0.6713098729227761
8.30069172431036,0.6615347018572825
8.310692557713143,0.6688660801564027
8.320693391115928,0.6566471163245357
8.33069422451871,0.6639784946236559
8.340695057921494,0.6529814271749755
8.350695891324277,0.6542033235581622
8.360696724727061,0.6639784946236559
8.370697558129844,0.6517595307917888
8.380698391532627,0.6432062561094819
8.390699224935412,0.6480938416422287
8.400700058338195,0.646871945259042
8.410700891740978,0.6542033235581622
8.420701725143763,0.6505376344086021
8.430702558546546,0.6542033235581622
8.440703391949329,0.6542033235581622
8.450704225352114,0.646871945259042
8.460705058754897,0.6419843597262952
8.47070589215768,0.6517595307917888
8.480706725560465,0.6480938416422287
8.490707558963248,0.6542033235581622
8.50070839236603,0.6590909090909091
8.510709225768814,0.6493157380254154
8.520710059171599,0.6566471163245357
8.530710892574382,0.646871945259042
8.540711725977165,0.6432062561094819
8.55071255937995,0.6517595307917888
8.560713392782732,0.646871945259042
8.570714226185515,0.6493157380254154
8.5807150595883,0.6542033235581622
8.590715892991083,0.6639784946236559
8.600716726393866,0.646871945259042
8.610717559796651,0.6517595307917888
8.620718393199434,0.6517595307917888
8.630719226602217,0.6432062561094819
8.640720060005,0.6542033235581622
8.650720893407785,0.6505376344086021
8.660721726810568,0.6493157380254154
8.67072256021335,0.6542033235581622
8.680723393616136,0.646871945259042
8.690724227018919,0.6432062561094819
8.700725060421702,0.6517595307917888
8.710725893824486,0.6432062561094819
8.72072672722727,0.6542033235581622
8.730727560630053,0.6456500488758553
8.740728394032837,0.6542033235581622
8.75072922743562,0.6542033235581622
8.760730060838403,0.646871945259042
8.770730894241186,0.6432062561094819
8.780731727643971,0.6517595307917888
8.790732561046754,0.6432062561094819
8.800733394449537,0.6542033235581622
8.810734227852322,0.6505376344086021
8.820735061255105,0.6542033235581622
8.830735894657888,0.6566471163245357
8.840736728060673,0.6517595307917888
8.850737561463456,0.6432062561094819
8.860738394866239,0.6480938416422287
8.870739228269024,0.6432062561094819
8.880740061671807,0.655425219941349
8.89074089507459,0.6542033235581622
8.900741728477374,0.6566471163245357
8.910742561880157,0.6517595307917888
8.92074339528294,0.6529814271749755
8.930744228685723,0.6517595307917888
8.940745062088508,0.6615347018572825
8.950745895491291,0.6578690127077224
8.960746728894074,0.6505376344086021
8.970747562296859,0.6542033235581622
8.980748395699642,0.6566471163245357
8.990749229102425,0.6517595307917888
9.00075006250521,0.6419843597262952
9.010750895907993,0.646871945259042
9.020751729310776,0.6419843597262952
9.03075256271356,0.6493157380254154
9.040753396116344,0.6505376344086021
9.050754229519127,0.6542033235581622
9.06075506292191,0.6493157380254154
9.070755896324695,0.6432062561094819
9.080756729727478,0.6419843597262952
9.09075756313026,0.646871945259042
9.100758396533045,0.6517595307917888
9.110759229935828,0.6737536656891495
9.120760063338611,0.6847507331378299
9.130760896741396,0.6933040078201369
9.14076173014418,0.6884164222873901
9.150762563546962,0.6713098729227761
9.160763396949747,0.6725317693059628
9.17076423035253,0.6529814271749755
9.180765063755313,0.6444281524926686
9.190765897158096,0.6603128054740958
9.200766730560881,0.6542033235581622
9.210767563963664,0.6578690127077224
9.220768397366447,0.646871945259042
9.230769230769232,0.646871945259042
9.240770064172015,0.6480938416422287
9.250770897574798,0.6480938416422287
9.260771730977583,0.6542033235581622
9.270772564380366,0.6603128054740958
9.280773397783149,0.6566471163245357
9.290774231185933,0.6566471163245357
9.300775064588716,0.6517595307917888
9.3107758979915,0.646871945259042
9.320776731394284,0.6566471163245357
9.330777564797067,0.6529814271749755
9.34077839819985,0.6578690127077224
9.350779231602633,0.6603128054740958
9.360780065005418,0.6542033235581622
9.370780898408201,0.6639784946236559
9.380781731810984,0.6566471163245357
9.390782565213769,0.6566471163245357
9.400783398616552,0.6615347018572825
9.410784232019335,0.6566471163245357
9.42078506542212,0.667644183773216
9.430785898824903,0.6652003910068426
9.440786732227686,0.6737536656891495
9.45078756563047,0.6774193548387096
9.460788399033254,0.6713098729227761
9.470789232436037,0.6713098729227761
9.48079006583882,0.6761974584555229
9.490790899241604,0.6737536656891495
9.500791732644387,0.679863147605083
9.51079256604717,0.6737536656891495
9.520793399449955,0.6761974584555229
9.530794232852738,0.6713098729227761
9.540795066255521,0.6566471163245357
9.550795899658306,0.6566471163245357
9.560796733061089,0.6480938416422287
9.570797566463872,0.6493157380254154
9.580798399866657,0.655425219941349
9.59079923326944,0.6542033235581622
9.600800066672223,0.6542033235581622
9.610800900075006,0.646871945259042
9.62080173347779,0.6419843597262952
9.630802566880574,0.646871945259042
9.640803400283357,0.6383186705767351
9.650804233686141,0.655425219941349
9.660805067088925,0.6480938416422287
9.670805900491708,0.6493157380254154
9.680806733894492,0.6542033235581622
9.690807567297275,0.6480938416422287
9.700808400700058,0.6432062561094819
9.710809234102843,0.646871945259042
9.720810067505626,0.6432062561094819
9.73081090090841,0.6493157380254154
9.740811734311194,0.6456500488758553
9.750812567713977,0.6493157380254154
9.76081340111676,0.6480938416422287
9.770814234519543,0.6432062561094819
9.780815067922328,0.646871945259042
9.79081590132511,0.6432062561094819
9.800816734727894,0.6542033235581622
9.810817568130679,0.6432062561094819
9.820818401533462,0.6566471163245357
9.830819234936245,0.6493157380254154
9.84082006833903,0.6517595307917888
9.850820901741812,0.6419843597262952
9.860821735144595,0.6517595307917888
9.87082256854738,0.6419843597262952
9.880823401950163,0.6542033235581622
9.890824235352946,0.6505376344086021
9.90082506875573,0.6444281524926686
9.910825902158514,0.6493157380254154
9.920826735561297,0.646871945259042
9.93082756896408,0.6419843597262952
9.940828402366865,0.6419843597262952
9.950829235769648,0.6383186705767351
9.960830069172431,0.6542033235581622
9.970830902575216,0.6456500488758553
9.980831735977999,0.6542033235581622
9.990832569380782,0.6542033235581622
10.000833402783567,0.646871945259042
10.01083423618635,0.6432062561094819
10.020835069589133,0.646871945259042
10.030835902991916,0.6419843597262952
10.0408367363947,0.6480938416422287
10.050837569797483,0.6493157380254154
10.060838403200266,0.6493157380254154
10.070839236603051,0.6432062561094819
10.080840070005834,0.6370967741935484
10.090840903408617,0.6480938416422287
10.100841736811402,0.646871945259042
10.110842570214185,0.6493157380254154
10.120843403616968,0.6480938416422287
10.130844237019753,0.6542033235581622
10.140845070422536,0.6542033235581622
10.150845903825319,0.6517595307917888
10.160846737228104,0.6517595307917888
10.170847570630887,0.6517595307917888
10.18084840403367,0.646871945259042
10.190849237436453,0.655425219941349
10.200850070839238,0.6505376344086021
10.21085090424202,0.6542033235581622
10.220851737644804,0.6542033235581622
10.230852571047588,0.6432062561094819
10.240853404450371,0.6383186705767351
10.250854237853154,0.6432062561094819
10.26085507125594,0.6419843597262952
10.270855904658722,0.6493157380254154
10.280856738061505,0.6529814271749755
10.29085757146429,0.6493157380254154
10.300858404867073,0.6542033235581622
10.310859238269856,0.6419843597262952
10.320860071672639,0.646871945259042
10.330860905075424,0.6529814271749755
10.340861738478207,0.6835288367546432
10.35086257188099,0.679863147605083
10.360863405283775,0.6933040078201369
10.370864238686558,0.6835288367546432
10.38086507208934,0.6688660801564027
10.390865905492126,0.6688660801564027
10.400866738894909,0.6322091886608016
10.410867572297692,0.6334310850439883
10.420868405700476,0.6542033235581622
10.43086923910326,0.655425219941349
10.440870072506042,0.6493157380254154
10.450870905908827,0.6542033235581622
10.46087173931161,0.6432062561094819
10.470872572714393,0.6480938416422287
10.480873406117176,0.646871945259042
10.490874239519961,0.6542033235581622
10.500875072922744,0.6505376344086021
10.510875906325527,0.6542033235581622
10.520876739728312,0.6566471163245357
10.530877573131095,0.6529814271749755
10.540878406533878,0.646871945259042
10.550879239936663,0.6517595307917888
10.560880073339446,0.6480938416422287
10.570880906742229,0.6639784946236559
10.580881740145013,0.6603128054740958
10.590882573547796,0.655425219941349
10.60088340695058,0.6566471163245357
10.610884240353363,0.6566471163245357
10.620885073756147,0.6627565982404692
10.63088590715893,0.6615347018572825
10.640886740561713,0.6664222873900293
10.650887573964498,0.667644183773216
10.660888407367281,0.6737536656891495
10.670889240770064,0.6835288367546432
10.680890074172849,0.6713098729227761
10.690890907575632,0.6713098729227761
10.700891740978415,0.6713098729227761
10.7108925743812,0.6725317693059628
10.720893407783983,0.6761974584555229
10.730894241186766,0.6749755620723362
10.740895074589549,0.6737536656891495
10.750895907992334,0.6761974584555229
10.760896741395117,0.6615347018572825
10.7708975747979,0.6566471163245357
10.780898408200684,0.6566471163245357
10.790899241603467,0.646871945259042
10.80090007500625,0.6493157380254154
10.810900908409035,0.6505376344086021
10.820901741811818,0.6493157380254154
10.830902575214601,0.6542033235581622
10.840903408617386,0.646871945259042
10.85090424202017,0.6432062561094819
10.860905075422952,0.6480938416422287
10.870905908825737,0.6383186705767351
10.88090674222852,0.6493157380254154
10.890907575631303,0.6493157380254154
10.900908409034086,0.6542033235581622
10.91090924243687,0.646871945259042
10.920910075839654,0.6432062561094819
10.930910909242437,0.646871945259042
10.940911742645222,0.6432062561094819
10.950912576048005,0.655425219941349
10.960913409450788,0.6456500488758553
10.970914242853572,0.6493157380254154
10.980915076256355,0.6542033235581622
10.990915909659138,0.6432062561094819
11.000916743061923,0.6419843597262952
11.010917576464706,0.646871945259042
11.02091840986749,0.6432062561094819
11.030919243270272,0.6444281524926686
11.040920076673057,0.6456500488758553
11.05092091007584,0.6444281524926686
11.060921743478623,0.6542033235581622
11.070922576881408,0.646871945259042
11.080923410284191,0.6432062561094819
11.090924243686974,0.6432062561094819
11.100925077089759,0.6419843597262952
11.110925910492542,0.6542033235581622
11.120926743895325,0.6456500488758553
11.13092757729811,0.6542033235581622
11.140928410700893,0.6493157380254154
11.150929244103676,0.6432062561094819
11.160930077506459,0.6432062561094819
11.170930910909243,0.646871945259042
11.180931744312026,0.6432062561094819
11.19093257771481,0.6493157380254154
11.200933411117594,0.6505376344086021
11.210934244520377,0.6493157380254154
11.22093507792316,0.6493157380254154
11.230935911325945,0.6432062561094819
11.240936744728728,0.6419843597262952
11.250937578131511,0.6419843597262952
11.260938411534296,0.6432062561094819
11.270939244937079,0.6542033235581622
11.280940078339862,0.6456500488758553
11.290940911742647,0.6444281524926686
11.30094174514543,0.6542033235581622
11.310942578548213,0.6419843597262952
11.320943411950996,0.6419843597262952
11.33094424535378,0.6432062561094819
11.340945078756564,0.6419843597262952
11.350945912159347,0.6444281524926686
11.360946745562131,0.6407624633431085
11.370947578964914,0.6493157380254154
11.380948412367697,0.646871945259042
11.390949245770482,0.6419843597262952
11.400950079173265,0.646871945259042
11.410950912576048,0.646871945259042
11.420951745978833,0.6542033235581622
11.430952579381616,0.6456500488758553
11.440953412784399,0.6493157380254154
11.450954246187182,0.6639784946236559
11.460955079589967,0.646871945259042
11.47095591299275,0.6419843597262952
11.480956746395533,0.646871945259042
11.490957579798318,0.6432062561094819
11.5009584132011,0.6444281524926686
11.510959246603884,0.6456500488758553
11.520960080006668,0.6493157380254154
11.530960913409452,0.6493157380254154
11.540961746812235,0.6383186705767351
11.55096258021502,0.6370967741935484
11.560963413617802,0.6419843597262952
11.570964247020585,0.6370967741935484
11.580965080423368,0.6444281524926686
11.590965913826153,0.6407624633431085
11.600966747228936,0.6542033235581622
11.61096758063172,0.6639784946236559
11.620968414034504,0.6810850439882697
11.630969247437287,0.6761974584555229
11.64097008084007,0.6908602150537635
11.650970914242855,0.6713098729227761
11.660971747645638,0.6652003910068426
11.67097258104842,0.634652981427175
11.680973414451206,0.6493157380254154
11.690974247853989,0.6370967741935484
11.700975081256772,0.646871945259042
11.710975914659556,0.646871945259042
11.72097674806234,0.6432062561094819
11.730977581465122,0.655425219941349
11.740978414867905,0.6505376344086021
11.75097924827069,0.6542033235581622
11.760980081673473,0.6639784946236559
11.770980915076256,0.646871945259042
11.780981748479041,0.646871945259042
11.790982581881824,0.6480938416422287
11.800983415284607,0.6542033235581622
11.810984248687392,0.6505376344086021
11.820985082090175,0.6542033235581622
11.830985915492958,0.6542033235581622
11.840986748895743,0.6517595307917888
11.850987582298526,0.6529814271749755
11.860988415701309,0.6566471163245357
11.870989249104092,0.6517595307917888
11.880990082506877,0.6578690127077224
11.89099091590966,0.6603128054740958
11.900991749312443,0.6652003910068426
11.910992582715227,0.6664222873900293
11.92099341611801,0.6713098729227761
11.930994249520793,0.6688660801564027
11.940995082923578,0.6713098729227761
11.950995916326361,0.6713098729227761
11.960996749729144,0.6761974584555229
11.970997583131929,0.6652003910068426
11.980998416534712,0.6737536656891495
11.990999249937495,0.6835288367546432
12.001000083340278,0.6713098729227761
12.011000916743063,0.6713098729227761
12.021001750145846,0.6688660801564027
12.031002583548629,0.6615347018572825
12.041003416951414,0.6639784946236559
12.051004250354197,0.6603128054740958
12.06100508375698,0.655425219941349
12.071005917159765,0.6542033235581622
12.081006750562548,0.6383186705767351
12.09100758396533,0.6517595307917888
12.101008417368115,0.6419843597262952
12.111009250770898,0.6542033235581622
12.121010084173681,0.6480938416422287
12.131010917576466,0.6542033235581622
12.14101175097925,0.6542033235581622
12.151012584382032,0.646871945259042
12.161013417784815,0.6432062561094819
12.1710142511876,0.6517595307917888
12.181015084590383,0.6432062561094819
12.191015917993166,0.6493157380254154
12.20101675139595,0.6505376344086021
12.211017584798734,0.6542033235581622
12.221018418201517,0.6566471163245357
12.231019251604302,0.646871945259042
12.241020085007085,0.6432062561094819
12.251020918409868,0.646871945259042
12.261021751812653,0.6419843597262952
12.271022585215436,0.6493157380254154
12.281023418618219,0.6456500488758553
12.291024252021002,0.6542033235581622
12.301025085423786,0.6542033235581622
12.31102591882657,0.6419843597262952
12.321026752229352,0.6383186705767351
12.331027585632137,0.646871945259042
12.34102841903492,0.6480938416422287
12.351029252437703,0.6542033235581622
12.361030085840488,0.6407624633431085
12.371030919243271,0.6493157380254154
12.381031752646054,0.6419843597262952
12.391032586048839,0.6419843597262952
12.401033419451622,0.6419843597262952
12.411034252854405,0.6334310850439883
12.421035086257188,0.6444281524926686
12.431035919659973,0.6456500488758553
12.441036753062756,0.6493157380254154
12.451037586465539,0.6542033235581622
12.461038419868324,0.6419843597262952
12.471039253271107,0.6419843597262952
12.48104008667389,0.6383186705767351
12.491040920076674,0.6480938416422287
12.501041753479457,0.6456500488758553
12.51104258688224,0.6493157380254154
12.521043420285025,0.6493157380254154
12.531044253687808,0.6432062561094819
12.541045087090591,0.6419843597262952
12.551045920493376,0.646871945259042
12.561046753896159,0.6432062561094819
12.571047587298942,0.655425219941349
12.581048420701725,0.6505376344086021
12.59104925410451,0.6542033235581622
12.601050087507293,0.6542033235581622
12.611050920910076,0.6517595307917888
12.62105175431286,0.6419843597262952
12.631052587715644,0.646871945259042
12.641053421118427,0.6419843597262952
12.651054254521211,0.6542033235581622
12.661055087923994,0.6407624633431085
12.671055921326777,0.6444281524926686
12.681056754729562,0.6493157380254154
12.691057588132345,0.6370967741935484
12.701058421535128,0.6432062561094819
12.711059254937911,0.6419843597262952
12.721060088340696,0.6480938416422287
12.73106092174348,0.6444281524926686
12.741061755146262,0.6407624633431085
12.751062588549047,0.6542033235581622
12.76106342195183,0.6761974584555229
12.771064255354613,0.6859726295210166
12.781065088757398,0.6859726295210166
12.79106592216018,0.6774193548387096
12.801066755562964,0.6578690127077224
12.811067588965749,0.6737536656891495
12.821068422368532,0.6603128054740958
12.831069255771315,0.634652981427175
12.841070089174098,0.6444281524926686
12.851070922576882,0.6419843597262952
12.861071755979665,0.6432062561094819
12.871072589382448,0.646871945259042
12.881073422785233,0.646871945259042
12.891074256188016,0.6542033235581622
12.9010750895908,0.6456500488758553
12.911075922993584,0.6493157380254154
12.921076756396367,0.6444281524926686
12.93107758979915,0.6529814271749755
12.941078423201935,0.6480938416422287
12.951079256604718,0.646871945259042
12.961080090007501,0.6370967741935484
12.971080923410286,0.6542033235581622
12.981081756813069,0.6529814271749755
12.991082590215852,0.6542033235581622
13.001083423618635,0.6639784946236559
13.01108425702142,0.6517595307917888
13.021085090424203,0.6529814271749755
13.031085923826986,0.6566471163245357
13.04108675722977,0.6566471163245357
13.051087590632553,0.6639784946236559
13.061088424035336,0.6603128054740958
13.071089257438121,0.6566471163245357
13.081090090840904,0.6737536656891495
13.091090924243687,0.6713098729227761
13.101091757646472,0.6713098729227761
13.111092591049255,0.6761974584555229
13.121093424452038,0.6688660801564027
13.131094257854821,0.6737536656891495
13.141095091257606,0.679863147605083
13.151095924660389,0.6774193548387096
13.161096758063172,0.6835288367546432
13.171097591465957,0.6761974584555229
13.18109842486874,0.6713098729227761
13.191099258271523,0.6713098729227761
13.201100091674308,0.6615347018572825
13.21110092507709,0.6639784946236559
13.221101758479874,0.6639784946236559
13.231102591882658,0.6566471163245357
13.241103425285441,0.6480938416422287
13.251104258688224,0.6432062561094819
13.261105092091007,0.646871945259042
13.271105925493792,0.6419843597262952
13.281106758896575,0.6444281524926686
13.291107592299358,0.6407624633431085
13.301108425702143,0.6493157380254154
13.311109259104926,0.6542033235581622
13.321110092507709,0.646871945259042
13.331110925910494,0.6419843597262952
13.341111759313277,0.6432062561094819
13.35111259271606,0.646871945259042
13.361113426118845,0.6493157380254154
13.371114259521628,0.6505376344086021
13.38111509292441,0.6493157380254154
13.391115926327195,0.6542033235581622
13.401116759729979,0.6480938416422287
13.411117593132762,0.6432062561094819
13.421118426535545,0.6419843597262952
13.43111925993833,0.6432062561094819
13.441120093341112,0.6578690127077224
13.451120926743895,0.6407624633431085
13.46112176014668,0.6542033235581622
13.471122593549463,0.6542033235581622
13.481123426952246,0.6432062561094819
13.491124260355031,0.6419843597262952
13.501125093757814,0.646871945259042
13.511125927160597,0.646871945259042
13.521126760563382,0.6444281524926686
13.531127593966165,0.6456500488758553
13.541128427368948,0.6383186705767351
13.55112926077173,0.6542033235581622
13.561130094174516,0.646871945259042
13.571130927577299,0.6419843597262952
13.581131760980082,0.646871945259042
13.591132594382866,0.6432062561094819
13.60113342778565,0.6542033235581622
13.611134261188433,0.6432062561094819
13.621135094591217,0.6493157380254154
13.631135927994,0.6493157380254154
13.641136761396783,0.6419843597262952
13.651137594799568,0.646871945259042
13.661138428202351,0.6432062561094819
13.671139261605134,0.6370967741935484
13.681140095007917,0.6542033235581622
13.691140928410702,0.6432062561094819
13.701141761813485,0.6493157380254154
13.711142595216268,0.6542033235581622
13.721143428619053,0.646871945259042
13.731144262021836,0.6419843597262952
13.741145095424619,0.646871945259042
13.751145928827404,0.6432062561094819
13.761146762230187,0.6542033235581622
13.77114759563297,0.6456500488758553
13.781148429035754,0.6542033235581622
13.791149262438537,0.6566471163245357
13.80115009584132,0.6419843597262952
13.811150929244105,0.6566471163245357
13.821151762646888,0.6419843597262952
13.831152596049671,0.6566471163245357
13.841153429452454,0.6505376344086021
13.851154262855239,0.6542033235581622
13.861155096258022,0.6566471163245357
13.871155929660805,0.646871945259042
13.88115676306359,0.6383186705767351
13.891157596466373,0.6419843597262952
13.901158429869156,0.6370967741935484
13.91115926327194,0.6444281524926686
13.921160096674724,0.6456500488758553
13.931160930077507,0.6444281524926686
13.941161763480292,0.6419843597262952
13.951162596883075,0.6383186705767351
13.961163430285858,0.6517595307917888
13.97116426368864,0.6529814271749755
13.981165097091425,0.6737536656891495
13.991165930494208,0.6847507331378299
14.001166763896991,0.6933040078201369
14.011167597299776,0.6774193548387096
14.02116843070256,0.6615347018572825
14.031169264105342,0.6688660801564027
14.041170097508127,0.6419843597262952
14.05117093091091,0.6322091886608016
14.061171764313693,0.6383186705767351
14.071172597716478,0.6505376344086021
14.081173431119261,0.6493157380254154
14.091174264522044,0.6542033235581622
14.101175097924827,0.6578690127077224
14.111175931327612,0.6480938416422287
14.121176764730395,0.646871945259042
14.131177598133178,0.6432062561094819
14.141178431535963,0.6542033235581622
14.151179264938746,0.6456500488758553
14.161180098341529,0.6542033235581622
14.171180931744313,0.6566471163245357
14.181181765147096,0.6517595307917888
14.19118259854988,0.6432062561094819
14.201183431952664,0.6615347018572825
14.211184265355447,0.6480938416422287
14.22118509875823,0.6639784946236559
14.231185932161015,0.6603128054740958
14.241186765563798,0.6578690127077224
14.251187598966581,0.6639784946236559
14.261188432369364,0.6615347018572825
14.271189265772149,0.6566471163245357
14.281190099174932,0.6615347018572825
14.291190932577715,0.6627565982404692
14.3011917659805,0.6737536656891495
14.311192599383283,0.667644183773216
14.321193432786066,0.6737536656891495
14.33119426618885,0.6737536656891495
14.341195099591634,0.6761974584555229
14.351195932994417,0.6688660801564027
14.361196766397201,0.6713098729227761
14.371197599799984,0.6713098729227761
14.381198433202767,0.6761974584555229
14.39119926660555,0.6749755620723362
14.401200100008335,0.6737536656891495
14.411200933411118,0.6737536656891495
14.421201766813901,0.6615347018572825
14.431202600216686,0.6517595307917888
14.441203433619469,0.6566471163245357
14.451204267022252,0.6480938416422287
14.461205100425037,0.6493157380254154
14.47120593382782,0.6480938416422287
14.481206767230603,0.6493157380254154
14.491207600633388,0.6542033235581622
14.50120843403617,0.6517595307917888
14.511209267438954,0.6383186705767351
14.521210100841737,0.6419843597262952
14.531210934244521,0.6542033235581622
14.541211767647304,0.6456500488758553
14.551212601050088,0.6444281524926686
14.561213434452872,0.6542033235581622
14.571214267855655,0.646871945259042
14.581215101258438,0.6419843597262952
14.591215934661223,0.6432062561094819
14.601216768064006,0.6419843597262952
14.61121760146679,0.6542033235581622
14.621218434869574,0.6432062561094819
14.631219268272357,0.6493157380254154
14.64122010167514,0.6542033235581622
14.651220935077925,0.6517595307917888
14.661221768480708,0.646871945259042
14.67122260188349,0.6419843597262952
14.681223435286274,0.6419843597262952
14.691224268689059,0.6542033235581622
14.701225102091842,0.6456500488758553
14.711225935494625,0.6542033235581622
14.72122676889741,0.6566471163245357
14.731227602300192,0.6419843597262952
14.741228435702975,0.646871945259042
14.75122926910576,0.646871945259042
14.761230102508543,0.6419843597262952
14.771230935911326,0.6493157380254154
14.781231769314111,0.6480938416422287
14.791232602716894,0.6444281524926686
14.801233436119677,0.646871945259042
14.81123426952246,0.6419843597262952
14.821235102925245,0.646871945259042
14.831235936328028,0.6432062561094819
14.841236769730811,0.6444281524926686
14.851237603133596,0.6456500488758553
14.861238436536379,0.6493157380254154
14.871239269939162,0.6542033235581622
14.881240103341947,0.646871945259042
14.89124093674473,0.6419843597262952
14.901241770147513,0.6383186705767351
14.911242603550297,0.6370967741935484
14.92124343695308,0.6542033235581622
14.931244270355863,0.6407624633431085
14.941245103758646,0.6444281524926686
14.951245937161431,0.6578690127077224
14.961246770564214,0.6383186705767351
14.971247603966997,0.6432062561094819
14.981248437369782,0.6517595307917888
14.991249270772565,0.6419843597262952
15.001250104175348,0.6493157380254154
15.011250937578133,0.6456500488758553
15.021251770980916,0.6493157380254154
15.031252604383699,0.6542033235581622
15.041253437786484,0.646871945259042
15.051254271189267,0.6432062561094819
15.06125510459205,0.646871945259042
15.071255937994835,0.646871945259042
15.081256771397618,0.6493157380254154
15.0912576048004,0.6529814271749755
15.101258438203184,0.6542033235581622
15.111259271605968,0.6542033235581622
15.121260105008751,0.6419843597262952
15.131260938411534,0.6370967741935484
15.14126177181432,0.6419843597262952
15.151262605217102,0.6334310850439883
15.161263438619885,0.6542033235581622
15.17126427202267,0.6407624633431085
15.181265105425453,0.634652981427175
15.191265938828236,0.6542033235581622
15.20126677223102,0.6480938416422287
15.211267605633804,0.6432062561094819
15.221268439036587,0.6383186705767351
15.23126927243937,0.6933040078201369
15.241270105842155,0.6725317693059628
15.251270939244938,0.6957478005865103
15.26127177264772,0.7152981427174976
15.271272606050506,0.6517595307917888
15.281273439453289,0.6713098729227761
15.291274272856072,0.6578690127077224
15.301275106258856,0.6089931573802542
15.31127593966164,0.634652981427175
15.321276773064422,0.6725317693059628
15.331277606467207,0.605327468230694
15.34127843986999,0.6370967741935484
15.351279273272773,0.7006353861192571
15.361280106675558,0.6517595307917888
15.371280940078341,0.6688660801564027
15.381281773481124,0.7104105571847508
15.391282606883907,0.6737536656891495
15.401283440286692,0.6407624633431085
15.411284273689475,0.6444281524926686
15.421285107092258,0.6493157380254154
15.431285940495043,0.6761974584555229
15.441286773897826,0.5637829912023461
15.451287607300609,0.6322091886608016
15.461288440703393,0.6615347018572825
15.471289274106176,0.6444281524926686
15.48129010750896,0.6994134897360704
15.491290940911744,0.6151026392961877
15.501291774314527,0.7739491691104594
15.51129260771731,0.6713098729227761
15.521293441120093,0.6432062561094819
15.531294274522878,0.6480938416422287
15.541295107925661,0.6542033235581622
15.551295941328444,0.6920821114369502
15.561296774731229,0.6493157380254154
15.571297608134012,0.705522971652004
15.581298441536795,0.696969696969697
15.59129927493958,0.6566471163245357
15.601300108342363,0.6224340175953079
15.611300941745146,0.6566471163245357
15.62130177514793,0.7458455522971652
15.631302608550714,0.6407624633431085
15.641303441953497,0.634652981427175
15.65130427535628,0.7128543499511242
15.661305108759064,0.6957478005865103
15.671305942161847,0.6419843597262952
15.68130677556463,0.6761974584555229
15.691307608967415,0.6077712609970675
15.701308442370198,0.6933040078201369
15.711309275772981,0.6896383186705768
15.721310109175766,0.6444281524926686
15.73131094257855,0.6444281524926686
15.741311775981332,0.646871945259042
15.751312609384117,0.613880742913001
15.7613134427869,0.7079667644183774
15.771314276189683,0.6688660801564027
15.781315109592468,0.6444281524926686
15.79131594299525,0.6114369501466276
15.801316776398034,0.7152981427174976
15.811317609800817,0.605327468230694
15.821318443203602,0.6175464320625611
15.831319276606385,0.5784457478005866
15.841320110009168,0.750733137829912
15.851320943411952,0.6419843597262952
15.861321776814735,0.6761974584555229
15.871322610217518,0.6700879765395894
15.881323443620303,0.6578690127077224
15.891324277023086,0.5955522971652004
15.90132511042587,0.6957478005865103
15.911325943828654,0.6823069403714564
15.921326777231437,0.5698924731182796
15.93132761063422,0.6615347018572825
15.941328444037003,0.5796676441837733
15.951329277439788,0.679863147605083
15.961330110842571,0.6884164222873901
15.971330944245354,0.5979960899315738
15.981331777648139,0.6810850439882697
15.991332611050922,0.6224340175953079
16.001333444453707,0.6713098729227761
16.011334277856488,0.7275171065493646
16.021335111259273,0.7580645161290323
16.031335944662057,0.6542033235581622
16.04133677806484,0.7030791788856305
16.051337611467623,0.646871945259042
16.061338444870408,0.5747800586510264
16.07133927827319,0.6957478005865103
16.081340111675974,0.6383186705767351
16.09134094507876,0.7275171065493646
16.10134177848154,0.5821114369501467
16.111342611884325,0.6248778103616813
16.12134344528711,0.7165200391006843
16.13134427868989,0.646871945259042
16.141345112092676,0.6297653958944281
16.151345945495457,0.7311827956989247
16.161346778898242,0.6493157380254154
16.171347612301027,0.6285434995112414
16.181348445703808,0.6493157380254154
16.191349279106593,0.6493157380254154
16.201350112509378,0.6529814271749755
16.21135094591216,0.6432062561094819
16.221351779314944,0.6529814271749755
16.23135261271773,0.6871945259042033
16.24135344612051,0.6761974584555229
16.251354279523294,0.738514173998045
16.26135511292608,0.6737536656891495
16.27135594632886,0.6957478005865103
16.281356779731645,0.6908602150537635
16.29135761313443,0.6908602150537635
16.30135844653721,0.6615347018572825
16.311359279939996,0.7140762463343109
16.32136011334278,0.6871945259042033
16.331360946745562,0.6933040078201369
16.341361780148347,0.6933040078201369
16.35136261355113,0.6908602150537635
16.361363446953913,0.6871945259042033
16.371364280356698,0.6713098729227761
16.381365113759482,0.6810850439882697
16.391365947162264,0.6933040078201369
16.40136678056505,0.6884164222873901
16.411367613967833,0.6737536656891495
16.421368447370615,0.6859726295210166
16.4313692807734,0.6774193548387096
16.44137011417618,0.6761974584555229
16.451370947578965,0.6871945259042033
16.46137178098175,0.6835288367546432
16.47137261438453,0.6994134897360704
16.481373447787316,0.7043010752688172
16.4913742811901,0.7152981427174976
16.501375114592882,0.7201857282502444
16.511375947995667,0.7250733137829912
16.521376781398452,0.7104105571847508
16.531377614801233,0.7165200391006843
16.541378448204018,0.6749755620723362
16.551379281606803,0.6884164222873901
16.561380115009584,0.6957478005865103
16.57138094841237,0.6920821114369502
16.581381781815153,0.6810850439882697
16.591382615217935,0.6957478005865103
16.60138344862072,0.6920821114369502
16.611384282023504,0.7030791788856305
16.621385115426285,0.6994134897360704
16.63138594882907,0.7030791788856305
16.641386782231855,0.7030791788856305
16.651387615634636,0.7006353861192571
16.66138844903742,0.6908602150537635
16.671389282440206,0.6957478005865103
16.681390115842987,0.7079667644183774
16.691390949245772,0.7030791788856305
16.701391782648553,0.7043010752688172
16.711392616051338,0.7043010752688172
16.721393449454123,0.7030791788856305
16.731394282856904,0.696969696969697
16.74139511625969,0.696969696969697
16.751395949662474,0.7018572825024438
16.761396783065255,0.696969696969697
16.77139761646804,0.7030791788856305
16.781398449870824,0.7067448680351907
16.791399283273606,0.7128543499511242
16.80140011667639,0.7152981427174976
16.811400950079175,0.7152981427174976
16.821401783481956,0.7104105571847508
16.83140261688474,0.7104105571847508
16.841403450287526,0.7104105571847508
16.851404283690307,0.7152981427174976
16.861405117093092,0.7189638318670577
16.871405950495877,0.7226295210166178
16.881406783898658,0.7226295210166178
16.891407617301443,0.7104105571847508
16.901408450704228,0.7018572825024438
16.91140928410701,0.7006353861192571
16.921410117509794,0.6859726295210166
16.93141095091258,0.7043010752688172
16.94141178431536,0.6994134897360704
16.951412617718145,0.6933040078201369
16.96141345112093,0.6933040078201369
16.97141428452371,0.6810850439882697
16.981415117926495,0.6725317693059628
16.991415951329277,0.6810850439882697
17.00141678473206,0.6725317693059628
17.011417618134846,0.6639784946236559
17.021418451537627,0.667644183773216
17.031419284940412,0.6835288367546432
17.041420118343197,0.6737536656891495
17.05142095174598,0.6517595307917888
17.061421785148763,0.6908602150537635
17.071422618551548,0.6322091886608016
17.08142345195433,0.6627565982404692
17.091424285357114,0.696969696969697
17.1014251187599,0.6652003910068426
17.11142595216268,0.6248778103616813
17.121426785565465,0.6933040078201369
17.13142761896825,0.7152981427174976
17.14142845237103,0.6224340175953079
17.151429285773816,0.7201857282502444
17.1614301191766,0.6419843597262952
17.17143095257938,0.6578690127077224
17.181431785982166,0.750733137829912
17.19143261938495,0.6639784946236559
17.201433452787732,0.634652981427175
17.211434286190517,0.6517595307917888
17.221435119593302,0.5747800586510264
17.231435952996083,0.7201857282502444
17.241436786398868,0.6920821114369502
17.251437619801653,0.6835288367546432
17.261438453204434,0.679863147605083
17.27143928660722,0.7226295210166178
17.28144012001,0.6737536656891495
17.291440953412785,0.6761974584555229
17.30144178681557,0.6761974584555229
17.31144262021835,0.6859726295210166
17.321443453621136,0.6126588465298143
17.33144428702392,0.6920821114369502
17.3414451204267,0.6933040078201369
17.351445953829487,0.6835288367546432
17.36144678723227,0.6725317693059628
17.371447620635053,0.6432062561094819
17.381448454037837,0.646871945259042
17.391449287440622,0.6713098729227761
17.401450120843403,0.6151026392961877
17.411450954246188,0.6994134897360704
17.421451787648973,0.7128543499511242
17.431452621051754,0.6444281524926686
17.44145345445454,0.6761974584555229
17.451454287857324,0.7165200391006843
17.461455121260105,0.696969696969697
17.47145595466289,0.6517595307917888
17.481456788065675,0.6737536656891495
17.491457621468456,0.6627565982404692
17.50145845487124,0.634652981427175
17.511459288274025,0.6957478005865103
17.521460121676807,0.6370967741935484
17.53146095507959,0.6871945259042033
17.541461788482373,0.6322091886608016
17.551462621885157,0.6432062561094819
17.561463455287942,0.696969696969697
17.571464288690724,0.6016617790811339
17.58146512209351,0.783724340175953
17.591465955496293,0.6493157380254154
17.601466788899074,0.6517595307917888
17.61146762230186,0.6370967741935484
17.621468455704644,0.6688660801564027
17.631469289107425,0.6542033235581622
17.64147012251021,0.7189638318670577
17.651470955912995,0.6542033235581622
17.661471789315776,0.5979960899315738
17.67147262271856,0.6419843597262952
17.681473456121346,0.7116324535679375
17.691474289524127,0.6224340175953079
17.70147512292691,0.7348484848484849
17.711475956329696,0.7030791788856305
17.721476789732478,0.6700879765395894
17.731477623135262,0.6542033235581622
17.741478456538047,0.6297653958944281
17.75147928994083,0.6859726295210166
17.761480123343613,0.6370967741935484
17.771480956746398,0.6908602150537635
17.78148179014918,0.696969696969697
17.791482623551964,0.6945259042033236
17.80148345695475,0.6994134897360704
17.81148429035753,0.7275171065493646
17.821485123760315,0.6737536656891495
17.831485957163096,0.6224340175953079
17.84148679056588,0.5979960899315738
17.851487623968666,0.6761974584555229
17.861488457371447,0.6761974584555229
17.87148929077423,0.7030791788856305
17.881490124177017,0.6590909090909091
17.891490957579798,0.6652003910068426
17.901491790982583,0.6370967741935484
17.911492624385367,0.6566471163245357
17.92149345778815,0.6480938416422287
17.931494291190933,0.6615347018572825
17.941495124593718,0.6639784946236559
17.9514959579965,0.6603128054740958
17.961496791399284,0.6542033235581622
17.97149762480207,0.6737536656891495
17.98149845820485,0.6688660801564027
17.991499291607635,0.6529814271749755
18.00150012501042,0.6517595307917888
18.0115009584132,0.6529814271749755
18.021501791815986,0.6542033235581622
18.03150262521877,0.6603128054740958
18.041503458621552,0.6566471163245357
18.051504292024337,0.6542033235581622
18.06150512542712,0.6480938416422287
18.071505958829903,0.6566471163245357
18.081506792232688,0.6517595307917888
18.091507625635472,0.6737536656891495
18.101508459038254,0.6700879765395894
18.11150929244104,0.6639784946236559
18.12151012584382,0.6835288367546432
18.131510959246604,0.6627565982404692
18.14151179264939,0.6713098729227761
18.15151262605217,0.6615347018572825
18.161513459454955,0.6615347018572825
18.17151429285774,0.667644183773216
18.18151512626052,0.6652003910068426
18.191515959663306,0.6542033235581622
18.20151679306609,0.6370967741935484
18.211517626468872,0.6480938416422287
18.221518459871657,0.6370967741935484
18.23151929327444,0.6334310850439883
18.241520126677223,0.6444281524926686
18.251520960080008,0.6407624633431085
18.261521793482792,0.634652981427175
18.271522626885574,0.634652981427175
18.28152346028836,0.6322091886608016
18.291524293691143,0.6322091886608016
18.301525127093925,0.6322091886608016
18.31152596049671,0.6236559139784946
18.321526793899494,0.6334310850439883
18.331527627302275,0.634652981427175
18.34152846070506,0.6370967741935484
18.351529294107845,0.6297653958944281
18.361530127510626,0.6322091886608016
18.37153096091341,0.6334310850439883
18.381531794316192,0.6297653958944281
18.391532627718977,0.6248778103616813
18.401533461121762,0.6407624633431085
18.411534294524543,0.6444281524926686
18.421535127927328,0.6370967741935484
18.431535961330113,0.6322091886608016
18.441536794732894,0.6322091886608016
18.45153762813568,0.6322091886608016
18.461538461538463,0.6322091886608016
18.471539294941245,0.634652981427175
18.48154012834403,0.6358748778103617
18.491540961746814,0.6383186705767351
18.501541795149596,0.634652981427175
18.51154262855238,0.6322091886608016
18.521543461955165,0.6322091886608016
18.531544295357946,0.6297653958944281
18.54154512876073,0.6297653958944281
18.551545962163516,0.634652981427175
18.561546795566297,0.6334310850439883
18.571547628969082,0.634652981427175
18.581548462371867,0.6444281524926686
18.591549295774648,0.6236559139784946
18.601550129177433,0.6297653958944281
18.611550962580218,0.6370967741935484
18.621551795983,0.6236559139784946
18.631552629385784,0.6358748778103617
18.64155346278857,0.6309872922776149
18.65155429619135,0.634652981427175
18.661555129594134,0.6444281524926686
18.671555962996916,0.6322091886608016
18.6815567963997,0.6322091886608016
18.691557629802485,0.6322091886608016
18.701558463205266,0.6322091886608016
18.71155929660805,0.634652981427175
18.721560130010836,0.6358748778103617
18.731560963413617,0.634652981427175
18.741561796816402,0.634652981427175
18.751562630219187,0.6322091886608016
18.761563463621968,0.6370967741935484
18.771564297024753,0.6322091886608016
18.781565130427538,0.6322091886608016
18.79156596383032,0.634652981427175
18.801566797233104,0.6163245356793744
18.81156763063589,0.6273216031280547
18.82156846403867,0.634652981427175
18.831569297441455,0.6480938416422287
18.84157013084424,0.6419843597262952
18.85157096424702,0.6224340175953079
18.861571797649805,0.5979960899315738
18.87157263105259,0.6065493646138808
18.88157346445537,0.5662267839687195
18.891574297858156,0.6542033235581622
18.90157513126094,0.6566471163245357
18.911575964663722,0.6859726295210166
18.921576798066507,0.6126588465298143
18.931577631469292,0.6871945259042033
18.941578464872073,0.6835288367546432
18.951579298274858,0.6041055718475073
18.96158013167764,0.6884164222873901
18.971580965080424,0.5784457478005866
18.98158179848321,0.5601173020527859
18.99158263188599,0.7006353861192571
19.001583465288775,0.7788367546432062
19.01158429869156,0.771505376344086
19.02158513209434,0.6847507331378299
19.031585965497126,0.655425219941349
19.04158679889991,0.6248778103616813
19.05158763230269,0.6322091886608016
19.061588465705476,0.6823069403714564
19.07158929910826,0.6236559139784946
19.081590132511042,0.4965786901270772
19.091590965913827,0.5869990224828935
19.101591799316612,0.6529814271749755
19.111592632719393,0.5955522971652004
19.121593466122178,0.7934995112414467
19.131594299524963,0.5735581622678397
19.141595132927744,0.6224340175953079
19.15159596633053,0.6713098729227761
19.161596799733314,0.7543988269794721
19.171597633136095,0.6273216031280547
19.18159846653888,0.7666177908113392
19.191599299941664,0.5857771260997068
19.201600133344446,0.6444281524926686
19.21160096674723,0.6175464320625611
19.22160180015001,0.5650048875855328
19.231602633552797,0.6383186705767351
19.24160346695558,0.6419843597262952
19.251604300358363,0.6884164222873901
19.261605133761147,0.7971652003910068
19.271605967163932,0.7910557184750733
19.281606800566713,0.5882209188660802
19.291607633969498,0.6419843597262952
19.301608467372283,0.5979960899315738
19.311609300775064,0.6688660801564027
19.32161013417785,0.7641739980449658
19.331610967580634,0.6542033235581622
19.341611800983415,0.6749755620723362
19.3516126343862,0.6444281524926686
19.361613467788985,0.605327468230694
19.371614301191766,0.7690615835777126
19.38161513459455,0.759286412512219
19.391615967997335,0.6432062561094819
19.401616801400117,0.6810850439882697
19.4116176348029,0.7812805474095796
19.421618468205686,0.6114369501466276
19.431619301608468,0.6945259042033236
19.441620135011252,0.6248778103616813
19.451620968414037,0.6859726295210166
19.46162180181682,0.6322091886608016
19.471622635219603,0.5197947214076246
19.481623468622388,0.8643695014662756
19.49162430202517,0.6175464320625611
19.501625135427954,0.6749755620723362
19.511625968830735,0.6493157380254154
19.52162680223352,0.6664222873900293
19.531627635636305,0.7543988269794721
19.541628469039086,0.6028836754643206
19.55162930244187,0.6370967741935484
19.561630135844656,0.6028836754643206
19.571630969247437,0.6945259042033236
19.58163180265022,0.6444281524926686
19.591632636053006,0.6444281524926686
19.601633469455788,0.8081622678396871
19.611634302858572,0.6688660801564027
19.621635136261357,0.6432062561094819
19.63163596966414,0.6334310850439883
19.641636803066923,0.7275171065493646
19.651637636469708,0.7971652003910068
19.66163846987249,0.5515640273704789
19.671639303275274,0.6884164222873901
19.68164013667806,0.837487781036168
19.69164097008084,0.6908602150537635
19.701641803483625,0.7152981427174976
19.71164263688641,0.7128543499511242
19.72164347028919,0.6456500488758553
19.731644303691976,0.634652981427175
19.74164513709476,0.7226295210166178
19.751645970497542,0.7104105571847508
19.761646803900327,0.6871945259042033
19.77164763730311,0.7250733137829912
19.781648470705893,0.6089931573802542
19.791649304108677,0.7458455522971652
19.80165013751146,0.6896383186705768
19.811650970914243,0.6542033235581622
19.821651804317028,0.6933040078201369
19.83165263771981,0.7079667644183774
19.841653471122594,0.6920821114369502
19.85165430452538,0.6859726295210166
19.86165513792816,0.6713098729227761
19.871655971330945,0.6933040078201369
19.88165680473373,0.6786412512218963
19.89165763813651,0.6664222873900293
19.901658471539296,0.6884164222873901
19.91165930494208,0.7006353861192571
19.921660138344862,0.6810850439882697
19.931660971747647,0.6713098729227761
19.94166180515043,0.6871945259042033
19.951662638553213,0.6933040078201369
19.961663471955998,0.6871945259042033
19.971664305358782,0.6835288367546432
19.981665138761564,0.7226295210166178
19.99166597216435,0.6713098729227761
20.001666805567133,0.6908602150537635
20.011667638969914,0.6871945259042033
20.0216684723727,0.6933040078201369
20.031669305775484,0.6896383186705768
20.041670139178265,0.6884164222873901
20.05167097258105,0.6933040078201369
20.06167180598383,0.6823069403714564
20.071672639386616,0.6810850439882697
20.0816734727894,0.6810850439882697
20.091674306192182,0.6725317693059628
20.101675139594967,0.6835288367546432
20.11167597299775,0.6847507331378299
20.121676806400533,0.6933040078201369
20.131677639803318,0.6908602150537635
20.141678473206102,0.6810850439882697
20.151679306608884,0.7104105571847508
20.16168014001167,0.7201857282502444
20.171680973414453,0.7275171065493646
20.181681806817235,0.7189638318670577
20.19168264022002,0.696969696969697
20.201683473622804,0.696969696969697
20.211684307025585,0.6908602150537635
20.22168514042837,0.6529814271749755
20.231685973831155,0.6761974584555229
20.241686807233936,0.6774193548387096
20.25168764063672,0.6835288367546432
20.261688474039506,0.679863147605083
20.271689307442287,0.6835288367546432
20.281690140845072,0.6713098729227761
20.291690974247857,0.6761974584555229
20.301691807650638,0.6823069403714564
20.311692641053423,0.6713098729227761
20.321693474456207,0.6933040078201369
20.33169430785899,0.679863147605083
20.341695141261773,0.6835288367546432
20.351695974664555,0.6835288367546432
20.36169680806734,0.6761974584555229
20.371697641470124,0.6725317693059628
20.381698474872906,0.6774193548387096
20.39169930827569,0.6725317693059628
20.401700141678475,0.6884164222873901
20.411700975081256,0.679863147605083
20.42170180848404,0.6884164222873901
20.431702641886826,0.6884164222873901
20.441703475289607,0.6859726295210166
20.451704308692392,0.6823069403714564
20.461705142095177,0.6823069403714564
20.471705975497958,0.6859726295210166
20.481706808900743,0.6933040078201369
20.491707642303528,0.6847507331378299
20.50170847570631,0.7030791788856305
20.511709309109094,0.6933040078201369
20.52171014251188,0.6908602150537635
20.53171097591466,0.6810850439882697
20.541711809317444,0.6957478005865103
20.55171264272023,0.6823069403714564
20.56171347612301,0.6884164222873901
20.571714309525795,0.6823069403714564
20.58171514292858,0.6761974584555229
20.59171597633136,0.6737536656891495
20.601716809734146,0.6713098729227761
20.61171764313693,0.6688660801564027
20.621718476539712,0.6615347018572825
20.631719309942497,0.6615347018572825
20.641720143345278,0.6639784946236559
20.651720976748063,0.6652003910068426
20.661721810150848,0.6639784946236559
20.67172264355363,0.6639784946236559
20.681723476956414,0.6529814271749755
20.6917243103592,0.6517595307917888
20.70172514376198,0.6529814271749755
20.711725977164765,0.6529814271749755
20.72172681056755,0.6639784946236559
20.73172764397033,0.6603128054740958
20.741728477373115,0.6639784946236559
20.7517293107759,0.6639784946236559
20.76173014417868,0.6517595307917888
20.771730977581466,0.6480938416422287
20.78173181098425,0.6517595307917888
20.791732644387032,0.6480938416422287
20.801733477789817,0.6542033235581622
20.811734311192602,0.6480938416422287
20.821735144595383,0.6542033235581622
20.831735977998168,0.6639784946236559
20.841736811400953,0.6517595307917888
20.851737644803734,0.6480938416422287
20.86173847820652,0.6517595307917888
20.871739311609304,0.6432062561094819
20.881740145012085,0.6529814271749755
20.89174097841487,0.6542033235581622
20.901741811817654,0.6542033235581622
20.911742645220436,0.646871945259042
20.92174347862322,0.646871945259042
20.931744312026,0.6529814271749755
20.941745145428786,0.6370967741935484
20.95174597883157,0.6542033235581622
20.961746812234352,0.6480938416422287
20.971747645637137,0.6542033235581622
20.981748479039922,0.6542033235581622
20.991749312442703,0.646871945259042
21.001750145845488,0.6432062561094819
21.011750979248273,0.646871945259042
21.021751812651054,0.6419843597262952
21.03175264605384,0.6444281524926686
21.041753479456624,0.6456500488758553
21.051754312859405,0.6493157380254154
21.06175514626219,0.6566471163245357
21.071755979664974,0.6419843597262952
21.081756813067756,0.6383186705767351
21.09175764647054,0.646871945259042
21.101758479873325,0.6419843597262952
21.111759313276107,0.6493157380254154
21.12176014667889,0.6456500488758553
21.131760980081676,0.6566471163245357
21.141761813484457,0.6566471163245357
21.151762646887242,0.646871945259042
21.161763480290027,0.6480938416422287
21.171764313692808,0.646871945259042
21.181765147095593,0.6480938416422287
21.191765980498374,0.6542033235581622
21.20176681390116,0.6456500488758553
21.211767647303944,0.6493157380254154
21.221768480706725,0.6542033235581622
21.23176931410951,0.6419843597262952
21.241770147512295,0.6419843597262952
21.251770980915076,0.6419843597262952
21.26177181431786,0.6383186705767351
21.271772647720645,0.634652981427175
21.281773481123427,0.6529814271749755
21.29177431452621,0.6444281524926686
21.301775147928996,0.6493157380254154
21.311775981331778,0.6370967741935484
21.321776814734562,0.6370967741935484
21.331777648137347,0.6383186705767351
21.34177848154013,0.6432062561094819
21.351779314942913,0.6639784946236559
21.361780148345698,0.679863147605083
21.37178098174848,0.6835288367546432
21.381781815151264,0.6933040078201369
21.39178264855405,0.6713098729227761
21.40178348195683,0.6713098729227761
21.411784315359615,0.6615347018572825
21.4217851487624,0.6297653958944281
21.43178598216518,0.634652981427175
21.441786815567966,0.6432062561094819
21.45178764897075,0.6493157380254154
21.46178848237353,0.6542033235581622
21.471789315776316,0.6383186705767351
21.481790149179098,0.6383186705767351
21.491790982581882,0.6432062561094819
21.501791815984667,0.6493157380254154
21.51179264938745,0.6480938416422287
21.521793482790233,0.6444281524926686
21.531794316193018,0.6493157380254154
21.5417951495958,0.6419843597262952
21.551795982998584,0.6383186705767351
21.56179681640137,0.646871945259042
21.57179764980415,0.6419843597262952
21.581798483206935,0.6542033235581622
21.59179931660972,0.6480938416422287
21.6018001500125,0.6542033235581622
21.611800983415286,0.6566471163245357
21.62180181681807,0.6517595307917888
21.631802650220852,0.6480938416422287
21.641803483623637,0.6566471163245357
21.65180431702642,0.6578690127077224
21.661805150429203,0.667644183773216
21.671805983831987,0.6603128054740958
21.681806817234772,0.6566471163245357
21.691807650637553,0.6737536656891495
21.70180848404034,0.6627565982404692
21.711809317443123,0.6615347018572825
21.721810150845904,0.6761974584555229
21.73181098424869,0.6713098729227761
21.741811817651474,0.6761974584555229
21.751812651054255,0.6652003910068426
21.76181348445704,0.6639784946236559
21.77181431785982,0.6639784946236559
21.781815151262606,0.6615347018572825
21.79181598466539,0.6419843597262952
21.801816818068172,0.6517595307917888
21.811817651470957,0.6493157380254154
21.82181848487374,0.6407624633431085
21.831819318276523,0.6542033235581622
21.841820151679308,0.6835288367546432
21.851820985082092,0.6370967741935484
21.861821818484874,0.6322091886608016
21.87182265188766,0.6419843597262952
21.881823485290443,0.6725317693059628
21.891824318693224,0.6444281524926686
21.90182515209601,0.6285434995112414
21.911825985498794,0.6370967741935484
21.921826818901575,0.6566471163245357
21.93182765230436,0.6615347018572825
21.941828485707145,0.6126588465298143
21.951829319109926,0.6322091886608016
21.96183015251271,0.6297653958944281
21.971830985915496,0.7030791788856305
21.981831819318277,0.626099706744868
21.99183265272106,0.6370967741935484
22.001833486123846,0.6493157380254154
22.011834319526628,0.6761974584555229
22.021835152929413,0.6725317693059628
22.031835986332194,0.5637829912023461
22.04183681973498,0.6419843597262952
22.051837653137763,0.7519550342130987
22.061838486540545,0.5869990224828935
22.07183931994333,0.6493157380254154
22.081840153346114,0.6493157380254154
22.091840986748895,0.646871945259042
22.10184182015168,0.6432062561094819
22.111842653554465,0.6761974584555229
22.121843486957246,0.6322091886608016
22.13184432036003,0.6945259042033236
22.141845153762816,0.6505376344086021
22.151845987165597,0.6444281524926686
22.161846820568382,0.6542033235581622
22.171847653971167,0.6810850439882697
22.181848487373948,0.6480938416422287
22.191849320776733,0.6480938416422287
22.201850154179517,0.6871945259042033
22.2118509875823,0.634652981427175
22.221851820985083,0.6309872922776149
22.23185265438787,0.6566471163245357
22.24185348779065,0.7006353861192571
22.251854321193434,0.593108504398827
22.26185515459622,0.6688660801564027
22.271855987999,0.6627565982404692
22.281856821401785,0.6493157380254154
22.29185765480457,0.6652003910068426
22.30185848820735,0.6542033235581622
22.311859321610136,0.6639784946236559
22.321860155012917,0.613880742913001
22.331860988415702,0.6627565982404692
22.341861821818487,0.613880742913001
22.351862655221268,0.6615347018572825
22.361863488624053,0.6542033235581622
22.371864322026838,0.6212121212121212
22.38186515542962,0.605327468230694
22.391865988832404,0.6615347018572825
22.40186682223519,0.6187683284457478
22.41186765563797,0.6664222873900293
22.421868489040754,0.6224340175953079
22.43186932244354,0.6542033235581622
22.44187015584632,0.6285434995112414
22.451870989249105,0.6761974584555229
22.46187182265189,0.6933040078201369
22.47187265605467,0.6908602150537635
22.481873489457456,0.6028836754643206
22.49187432286024,0.646871945259042
22.501875156263022,0.6432062561094819
22.511875989665807,0.6273216031280547
22.52187682306859,0.6456500488758553
22.531877656471373,0.6248778103616813
22.541878489874158,0.6493157380254154
22.551879323276943,0.6713098729227761
22.561880156679724,0.5943304007820137
22.57188099008251,0.6432062561094819
22.581881823485293,0.6322091886608016
22.591882656888075,0.667644183773216
22.60188349029086,0.679863147605083
22.61188432369364,0.6737536656891495
22.621885157096425,0.7030791788856305
22.63188599049921,0.646871945259042
22.64188682390199,0.646871945259042
22.651887657304776,0.696969696969697
22.66188849070756,0.6725317693059628
22.671889324110342,0.6151026392961877
22.681890157513127,0.6370967741935484
22.691890990915912,0.6370967741935484
22.701891824318693,0.6517595307917888
22.711892657721478,0.6419843597262952
22.721893491124263,0.6713098729227761
22.731894324527044,0.6126588465298143
22.74189515792983,0.6542033235581622
22.751895991332614,0.6603128054740958
22.761896824735395,0.605327468230694
22.77189765813818,0.634652981427175
22.781898491540964,0.6761974584555229
22.791899324943746,0.6615347018572825
22.80190015834653,0.6480938416422287
22.811900991749315,0.6236559139784946
22.821901825152096,0.6444281524926686
22.83190265855488,0.6407624633431085
22.841903491957666,0.6493157380254154
22.851904325360447,0.6493157380254154
22.861905158763232,0.6566471163245357
22.871905992166013,0.6615347018572825
22.881906825568798,0.6322091886608016
22.891907658971583,0.6761974584555229
22.901908492374364,0.6493157380254154
22.91190932577715,0.6700879765395894
22.921910159179934,0.6639784946236559
22.931910992582715,0.6737536656891495
22.9419118259855,0.6908602150537635
22.951912659388285,0.6908602150537635
22.961913492791066,0.6566471163245357
22.97191432619385,0.6517595307917888
22.981915159596635,0.6737536656891495
22.991915992999417,0.6725317693059628
23.0019168264022,0.7128543499511242
23.011917659804986,0.7030791788856305
23.021918493207767,0.6370967741935484
23.031919326610552,0.6432062561094819
23.041920160013337,0.6713098729227761
23.051920993416118,0.6529814271749755
23.061921826818903,0.6542033235581622
23.071922660221688,0.6456500488758553
23.08192349362447,0.6444281524926686
23.091924327027254,0.6493157380254154
23.10192516043004,0.6419843597262952
23.11192599383282,0.6383186705767351
23.121926827235605,0.646871945259042
23.13192766063839,0.6383186705767351
23.14192849404117,0.6456500488758553
23.151929327443955,0.6444281524926686
23.161930160846737,0.6542033235581622
23.17193099424952,0.6432062561094819
23.181931827652306,0.6334310850439883
23.191932661055088,0.6432062561094819
23.201933494457872,0.6383186705767351
23.211934327860657,0.6542033235581622
23.22193516126344,0.6456500488758553
23.231935994666223,0.6493157380254154
23.241936828069008,0.6566471163245357
23.25193766147179,0.6419843597262952
23.261938494874574,0.6370967741935484
23.27193932827736,0.6419843597262952
23.28194016168014,0.6480938416422287
23.291940995082925,0.6493157380254154
23.30194182848571,0.6456500488758553
23.31194266188849,0.6493157380254154
23.321943495291276,0.6493157380254154
23.33194432869406,0.646871945259042
23.34194516209684,0.6370967741935484
23.351945995499626,0.6419843597262952
23.36194682890241,0.6419843597262952
23.371947662305192,0.6493157380254154
23.381948495707977,0.6407624633431085
23.391949329110762,0.6542033235581622
23.401950162513543,0.6542033235581622
23.411950995916328,0.6419843597262952
23.421951829319113,0.6334310850439883
23.431952662721894,0.6419843597262952
23.44195349612468,0.6493157380254154
23.45195432952746,0.6407624633431085
23.461955162930245,0.6395405669599218
23.47195599633303,0.6542033235581622
23.48195682973581,0.646871945259042
23.491957663138596,0.6322091886608016
23.50195849654138,0.646871945259042
23.511959329944162,0.6334310850439883
23.521960163346947,0.6444281524926686
23.53196099674973,0.6407624633431085
23.541961830152513,0.6383186705767351
23.551962663555297,0.6444281524926686
23.561963496958082,0.646871945259042
23.571964330360863,0.6334310850439883
23.58196516376365,0.6419843597262952
23.591965997166433,0.6493157380254154
23.601966830569214,0.6456500488758553
23.611967663972,0.6444281524926686
23.621968497374784,0.6444281524926686
23.631969330777565,0.6419843597262952
23.64197016418035,0.6334310850439883
23.651970997583135,0.6419843597262952
23.661971830985916,0.6419843597262952
23.6719726643887,0.6383186705767351
23.681973497791486,0.6358748778103617
23.691974331194267,0.6444281524926686
23.70197516459705,0.6493157380254154
23.711975997999833,0.646871945259042
23.721976831402618,0.6370967741935484
23.731977664805402,0.6419843597262952
23.741978498208184,0.6383186705767351
23.75197933161097,0.6444281524926686
23.761980165013753,0.6480938416422287
23.771980998416534,0.6444281524926686
23.78198183181932,0.6542033235581622
23.791982665222104,0.6370967741935484
23.801983498624885,0.6322091886608016
23.81198433202767,0.6370967741935484
23.821985165430455,0.6322091886608016
23.831985998833236,0.6444281524926686
23.84198683223602,0.6285434995112414
23.851987665638806,0.6358748778103617
23.861988499041587,0.6370967741935484
23.87198933244437,0.6322091886608016
23.881990165847157,0.6322091886608016
23.891990999249938,0.6383186705767351
23.901991832652723,0.6542033235581622
23.911992666055507,0.6700879765395894
23.92199349945829,0.6835288367546432
23.931994332861073,0.6761974584555229
23.941995166263858,0.6615347018572825
23.95199599966664,0.6713098729227761
23.961996833069424,0.6517595307917888
23.97199766647221,0.6175464320625611
23.98199849987499,0.6248778103616813
23.991999333277775,0.6358748778103617
24.002000166680556,0.634652981427175
24.01200100008334,0.6493157380254154
24.022001833486126,0.6419843597262952
24.032002666888907,0.6370967741935484
24.042003500291692,0.6432062561094819
24.052004333694477,0.6334310850439883
24.062005167097258,0.6444281524926686
24.072006000500043,0.6334310850439883
24.082006833902827,0.6493157380254154
24.09200766730561,0.6639784946236559
24.102008500708394,0.6334310850439883
24.11200933411118,0.6322091886608016
24.12201016751396,0.6322091886608016
24.132011000916744,0.6432062561094819
24.14201183431953,0.634652981427175
24.15201266772231,0.6480938416422287
24.162013501125095,0.6542033235581622
24.17201433452788,0.6151026392961877
24.18201516793066,0.6810850439882697
24.192016001333446,0.6322091886608016
24.20201683473623,0.6615347018572825
24.212017668139012,0.6688660801564027
24.222018501541797,0.6639784946236559
24.23201933494458,0.6590909090909091
24.242020168347363,0.6493157380254154
24.252021001750148,0.6737536656891495
24.262021835152932,0.6615347018572825
24.272022668555714,0.6688660801564027
24.2820235019585,0.6615347018572825
24.29202433536128,0.6627565982404692
24.302025168764064,0.6737536656891495
24.31202600216685,0.6652003910068426
24.32202683556963,0.6370967741935484
24.332027668972415,0.6248778103616813
24.3420285023752,0.6688660801564027
24.35202933577798,0.6419843597262952
24.362030169180766,0.6370967741935484
24.37203100258355,0.6517595307917888
24.382031835986332,0.6542033235581622
24.392032669389117,0.6456500488758553
24.4020335027919,0.6444281524926686
24.412034336194683,0.6444281524926686
24.422035169597468,0.6383186705767351
24.432036003000253,0.6480938416422287
24.442036836403034,0.6383186705767351
24.45203766980582,0.6297653958944281
24.462038503208603,0.6493157380254154
24.472039336611385,0.6199902248289345
24.48204017001417,0.6493157380254154
24.492041003416954,0.6175464320625611
24.502041836819735,0.6322091886608016
24.51204267022252,0.6529814271749755
24.522043503625305,0.6480938416422287
24.532044337028086,0.6517595307917888
24.54204517043087,0.6383186705767351
24.552046003833652,0.6456500488758553
24.562046837236437,0.6383186705767351
24.572047670639222,0.634652981427175
24.582048504042003,0.6566471163245357
24.592049337444788,0.6322091886608016
24.602050170847573,0.6334310850439883
24.612051004250354,0.6432062561094819
24.62205183765314,0.605327468230694
24.632052671055924,0.6480938416422287
24.642053504458705,0.6248778103616813
24.65205433786149,0.6493157380254154
24.662055171264274,0.6322091886608016
24.672056004667056,0.6175464320625611
24.68205683806984,0.6370967741935484
24.692057671472625,0.6322091886608016
24.702058504875406,0.6542033235581622
24.71205933827819,0.6383186705767351
24.722060171680976,0.6248778103616813
24.732061005083757,0.6370967741935484
24.742061838486542,0.6370967741935484
24.752062671889327,0.6383186705767351
24.762063505292108,0.6370967741935484
24.772064338694893,0.6493157380254154
24.782065172097678,0.6432062561094819
24.79206600550046,0.6444281524926686
24.802066838903244,0.6493157380254154
24.81206767230603,0.6334310850439883
24.82206850570881,0.6383186705767351
24.832069339111595,0.6370967741935484
24.842070172514376,0.6419843597262952
24.85207100591716,0.6456500488758553
24.862071839319945,0.6444281524926686
24.872072672722727,0.6566471163245357
24.88207350612551,0.6322091886608016
24.892074339528296,0.6432062561094819
24.902075172931077,0.646871945259042
24.912076006333862,0.6419843597262952
24.922076839736647,0.6542033235581622
24.93207767313943,0.6456500488758553
24.942078506542213,0.6370967741935484
24.952079339944998,0.6493157380254154
24.96208017334778,0.6517595307917888
24.972081006750564,0.6480938416422287
24.98208184015335,0.6480938416422287
24.99208267355613,0.6444281524926686
25.002083506958915,0.6456500488758553
25.0120843403617,0.6639784946236559
25.02208517376448,0.6542033235581622
25.032086007167266,0.646871945259042
25.04208684057005,0.6370967741935484
25.05208767397283,0.6419843597262952
25.062088507375616,0.6480938416422287
25.0720893407784,0.6493157380254154
25.082090174181182,0.6432062561094819
25.092091007583967,0.6370967741935484
25.102091840986752,0.6566471163245357
25.112092674389533,0.646871945259042
25.122093507792318,0.6383186705767351
25.1320943411951,0.6566471163245357
25.142095174597884,0.6480938416422287
25.15209600800067,0.6737536656891495
25.16209684140345,0.679863147605083
25.172097674806235,0.6933040078201369
25.18209850820902,0.6737536656891495
25.1920993416118,0.6713098729227761
25.202100175014586,0.6529814271749755
25.21210100841737,0.6370967741935484
25.22210184182015,0.6322091886608016
25.232102675222936,0.6444281524926686
25.24210350862572,0.6505376344086021
25.252104342028503,0.6542033235581622
25.262105175431287,0.6566471163245357
25.272106008834072,0.646871945259042
25.282106842236853,0.6419843597262952
25.292107675639638,0.6517595307917888
25.302108509042423,0.6419843597262952
25.312109342445204,0.655425219941349
25.32211017584799,0.6480938416422287
25.332111009250774,0.6542033235581622
25.342111842653555,0.6542033235581622
25.35211267605634,0.6480938416422287
25.362113509459125,0.6480938416422287
25.372114342861906,0.6517595307917888
25.38211517626469,0.646871945259042
25.392116009667472,0.6578690127077224
25.402116843070257,0.6603128054740958
25.41211767647304,0.6639784946236559
25.422118509875823,0.6578690127077224
25.432119343278607,0.6517595307917888
25.442120176681392,0.6566471163245357
25.452121010084173,0.6615347018572825
25.46212184348696,0.6639784946236559
25.472122676889743,0.667644183773216
25.482123510292524,0.667644183773216
25.49212434369531,0.6835288367546432
25.502125177098094,0.6725317693059628
25.512126010500875,0.6713098729227761
25.52212684390366,0.6810850439882697
25.532127677306445,0.6725317693059628
25.542128510709226,0.6725317693059628
25.55212934411201,0.6749755620723362
25.562130177514796,0.6737536656891495
25.572131010917577,0.6578690127077224
25.58213184432036,0.6688660801564027
25.592132677723146,0.6566471163245357
25.602133511125928,0.646871945259042
25.612134344528712,0.6542033235581622
25.622135177931497,0.6480938416422287
25.63213601133428,0.6493157380254154
25.642136844737063,0.6542033235581622
25.652137678139848,0.646871945259042
25.66213851154263,0.6419843597262952
25.672139344945414,0.6419843597262952
25.682140178348195,0.6493157380254154
25.69214101175098,0.6590909090909091
25.702141845153765,0.6542033235581622
25.712142678556546,0.6493157380254154
25.72214351195933,0.6480938416422287
25.732144345362116,0.6432062561094819
25.742145178764897,0.6419843597262952
25.75214601216768,0.6419843597262952
25.762146845570467,0.6493157380254154
25.772147678973248,0.6505376344086021
25.782148512376033,0.6493157380254154
25.792149345778817,0.6566471163245357
25.8021501791816,0.6419843597262952
25.812151012584383,0.6419843597262952
25.822151845987168,0.6419843597262952
25.83215267938995,0.6444281524926686
25.842153512792734,0.6603128054740958
25.85215434619552,0.6493157380254154
25.8621551795983,0.6542033235581622
25.872156013001085,0.6480938416422287
25.88215684640387,0.6432062561094819
25.89215767980665,0.646871945259042
25.902158513209436,0.6419843597262952
25.91215934661222,0.6444281524926686
25.922160180015002,0.6456500488758553
25.932161013417787,0.6493157380254154
25.94216184682057,0.6542033235581622
25.952162680223353,0.6432062561094819
25.962163513626138,0.6419843597262952
25.97216434702892,0.646871945259042
25.982165180431704,0.6419843597262952
25.99216601383449,0.6542033235581622
26.00216684723727,0.6456500488758553
26.012167680640054,0.6493157380254154
26.02216851404284,0.6542033235581622
26.03216934744562,0.646871945259042
26.042170180848405,0.6419843597262952
26.05217101425119,0.6480938416422287
26.06217184765397,0.6432062561094819
26.072172681056756,0.6566471163245357
26.08217351445954,0.6456500488758553
26.092174347862322,0.6542033235581622
26.102175181265107,0.6566471163245357
26.11217601466789,0.646871945259042
26.122176848070673,0.6432062561094819
26.132177681473458,0.646871945259042
26.142178514876242,0.6432062561094819
26.152179348279024,0.6542033235581622
26.16218018168181,0.6505376344086021
26.172181015084593,0.6578690127077224
26.182181848487375,0.6566471163245357
26.19218268189016,0.6517595307917888
26.202183515292944,0.6517595307917888
26.212184348695725,0.6517595307917888
26.22218518209851,0.6432062561094819
26.232186015501295,0.6542033235581622
26.242186848904076,0.655425219941349
26.25218768230686,0.6542033235581622
26.262188515709642,0.6639784946236559
26.272189349112427,0.6370967741935484
26.28219018251521,0.6370967741935484
26.292191015917993,0.646871945259042
26.302191849320778,0.6419843597262952
26.312192682723563,0.6493157380254154
26.322193516126344,0.6456500488758553
26.33219434952913,0.6444281524926686
26.342195182931913,0.6566471163245357
26.352196016334695,0.6432062561094819
26.36219684973748,0.6615347018572825
26.372197683140264,0.6761974584555229
26.382198516543045,0.6884164222873901
26.39219934994583,0.6994134897360704
26.402200183348615,0.6835288367546432
26.412201016751396,0.6737536656891495
26.42220185015418,0.6713098729227761
26.432202683556966,0.6432062561094819
26.442203516959747,0.6370967741935484
26.452204350362532,0.6432062561094819
26.462205183765317,0.6542033235581622
26.472206017168098,0.6480938416422287
26.482206850570883,0.6542033235581622
26.492207683973668,0.6517595307917888
26.50220851737645,0.6517595307917888
26.512209350779234,0.6529814271749755
26.522210184182015,0.6517595307917888
26.5322110175848,0.6639784946236559
26.542211850987584,0.6603128054740958
26.552212684390366,0.6566471163245357
26.56221351779315,0.6639784946236559
26.572214351195935,0.6517595307917888
26.582215184598716,0.6517595307917888
26.5922160180015,0.6566471163245357
26.602216851404286,0.6578690127077224
26.612217684807067,0.6603128054740958
26.622218518209852,0.6639784946236559
26.632219351612637,0.6639784946236559
26.642220185015418,0.6627565982404692
26.652221018418203,0.6615347018572825
26.662221851820988,0.6713098729227761
26.67222268522377,0.6713098729227761
26.682223518626554,0.6737536656891495
26.69222435202934,0.6786412512218963
26.70222518543212,0.6749755620723362
26.712226018834905,0.6884164222873901
26.72222685223769,0.6761974584555229
26.73222768564047,0.6725317693059628
26.742228519043255,0.6761974584555229
26.75222935244604,0.6761974584555229
26.76223018584882,0.6774193548387096
26.772231019251606,0.679863147605083
26.78223185265439,0.6761974584555229
26.792232686057172,0.6737536656891495
26.802233519459957,0.6615347018572825
26.81223435286274,0.6529814271749755
26.822235186265523,0.6529814271749755
26.832236019668308,0.646871945259042
26.84223685307109,0.6542033235581622
26.852237686473874,0.6505376344086021
26.86223851987666,0.655425219941349
26.87223935327944,0.646871945259042
26.882240186682225,0.6432062561094819
26.89224102008501,0.6517595307917888
26.90224185348779,0.6480938416422287
26.912242686890576,0.6542033235581622
26.92224352029336,0.6603128054740958
26.93224435369614,0.6493157380254154
26.942245187098926,0.6578690127077224
26.95224602050171,0.646871945259042
26.962246853904492,0.6432062561094819
26.972247687307277,0.6517595307917888
26.982248520710062,0.6419843597262952
26.992249354112843,0.6639784946236559
27.002250187515628,0.6542033235581622
27.012251020918413,0.6566471163245357
27.022251854321194,0.646871945259042
27.03225268772398,0.6480938416422287
27.042253521126764,0.6517595307917888
27.052254354529545,0.646871945259042
27.06225518793233,0.6542033235581622
27.072256021335114,0.6505376344086021
27.082256854737896,0.6542033235581622
27.09225768814068,0.6578690127077224
27.10225852154346,0.6517595307917888
27.112259354946247,0.6432062561094819
27.12226018834903,0.646871945259042
27.132261021751813,0.6419843597262952
27.142261855154597,0.6493157380254154
27.152262688557382,0.6529814271749755
27.162263521960163,0.6542033235581622
27.172264355362948,0.6542033235581622
27.182265188765733,0.646871945259042
27.192266022168514,0.646871945259042
27.2022668555713,0.6529814271749755
27.212267688974084,0.6419843597262952
27.222268522376865,0.6542033235581622
27.23226935577965,0.6505376344086021
27.242270189182435,0.6542033235581622
27.252271022585216,0.6542033235581622
27.262271855988,0.6566471163245357
27.272272689390785,0.6432062561094819
27.282273522793567,0.6419843597262952
27.29227435619635,0.6383186705767351
27.302275189599136,0.6542033235581622
27.312276023001917,0.6505376344086021
27.322276856404702,0.6542033235581622
27.332277689807487,0.6566471163245357
27.34227852321027,0.6480938416422287
27.352279356613053,0.6432062561094819
27.362280190015834,0.6480938416422287
27.37228102341862,0.6432062561094819
27.382281856821404,0.6566471163245357
27.392282690224185,0.6456500488758553
27.40228352362697,0.6542033235581622
27.412284357029755,0.646871945259042
27.422285190432536,0.6432062561094819
27.43228602383532,0.6480938416422287
27.442286857238106,0.6432062561094819
27.452287690640887,0.6542033235581622
27.46228852404367,0.6505376344086021
27.472289357446456,0.6542033235581622
27.482290190849238,0.6542033235581622
27.492291024252022,0.6529814271749755
27.502291857654807,0.646871945259042
27.51229269105759,0.6517595307917888
27.522293524460373,0.6480938416422287
27.532294357863158,0.6639784946236559
27.54229519126594,0.655425219941349
27.552296024668724,0.6542033235581622
27.56229685807151,0.6566471163245357
27.57229769147429,0.6480938416422287
27.582298524877075,0.6480938416422287
27.59229935827986,0.6517595307917888
27.60230019168264,0.6419843597262952
27.612301025085426,0.6542033235581622
27.62230185848821,0.6456500488758553
27.63230269189099,0.6493157380254154
27.642303525293777,0.6542033235581622
27.652304358696558,0.6517595307917888
27.662305192099343,0.6419843597262952
27.672306025502127,0.646871945259042
27.68230685890491,0.646871945259042
27.692307692307693,0.655425219941349
27.702308525710478,0.667644183773216
27.71230935911326,0.6933040078201369
27.722310192516044,0.6933040078201369
27.73231102591883,0.6859726295210166
27.74231185932161,0.6713098729227761
27.752312692724395,0.6761974584555229
27.76231352612718,0.6713098729227761
27.77231435952996,0.6370967741935484
27.782315192932746,0.6480938416422287
27.79231602633553,0.655425219941349
27.802316859738312,0.6639784946236559
27.812317693141097,0.6480938416422287
27.82231852654388,0.6432062561094819
27.832319359946663,0.6480938416422287
27.842320193349448,0.646871945259042
27.852321026752232,0.6542033235581622
27.862321860155014,0.6603128054740958
27.8723226935578,0.6566471163245357
27.882323526960583,0.6542033235581622
27.892324360363364,0.6566471163245357
27.90232519376615,0.6480938416422287
27.912326027168934,0.6517595307917888
27.922326860571715,0.646871945259042
27.9323276939745,0.6639784946236559
27.94232852737728,0.6566471163245357
27.952329360780066,0.6639784946236559
27.96233019418285,0.6566471163245357
27.972331027585632,0.6529814271749755
27.982331860988417,0.6615347018572825
27.9923326943912,0.6566471163245357
28.002333527793983,0.6652003910068426
28.012334361196768,0.6627565982404692
28.022335194599552,0.6737536656891495
28.032336028002334,0.6737536656891495
28.04233686140512,0.6810850439882697
28.052337694807903,0.6713098729227761
28.062338528210685,0.6774193548387096
28.07233936161347,0.6810850439882697
28.082340195016254,0.6835288367546432
28.092341028419035,0.6786412512218963
28.10234186182182,0.6835288367546432
28.112342695224605,0.6835288367546432
28.122343528627386,0.6713098729227761
28.13234436203017,0.6615347018572825
28.142345195432956,0.6713098729227761
28.152346028835737,0.6529814271749755
28.162346862238522,0.6639784946236559
28.172347695641307,0.6603128054740958
28.182348529044088,0.655425219941349
28.192349362446873,0.6566471163245357
28.202350195849654,0.646871945259042
28.21235102925244,0.6419843597262952
28.222351862655223,0.646871945259042
28.232352696058005,0.6480938416422287
28.24235352946079,0.6493157380254154
28.252354362863574,0.6505376344086021
28.262355196266356,0.655425219941349
28.27235602966914,0.6493157380254154
28.282356863071925,0.6480938416422287
28.292357696474706,0.6419843597262952
28.30235852987749,0.6419843597262952
28.312359363280276,0.6542033235581622
28.322360196683057,0.6505376344086021
28.332361030085842,0.6493157380254154
28.342361863488627,0.6566471163245357
28.352362696891408,0.6517595307917888
28.362363530294193,0.6432062561094819
28.372364363696978,0.6566471163245357
28.38236519709976,0.6432062561094819
28.392366030502544,0.6493157380254154
28.40236686390533,0.6480938416422287
28.41236769730811,0.6542033235581622
28.422368530710894,0.6542033235581622
28.43236936411368,0.6517595307917888
28.44237019751646,0.6432062561094819
28.452371030919245,0.6480938416422287
28.46237186432203,0.646871945259042
28.47237269772481,0.655425219941349
28.482373531127596,0.6505376344086021
28.492374364530377,0.6493157380254154
28.502375197933162,0.6566471163245357
28.512376031335947,0.646871945259042
28.522376864738728,0.6419843597262952
28.532377698141513,0.6517595307917888
28.542378531544298,0.6419843597262952
28.55237936494708,0.6493157380254154
28.562380198349864,0.6505376344086021
28.57238103175265,0.6542033235581622
28.58238186515543,0.6578690127077224
28.592382698558215,0.646871945259042
28.602383531961,0.646871945259042
28.61238436536378,0.646871945259042
28.622385198766565,0.6419843597262952
28.63238603216935,0.6493157380254154
28.64238686557213,0.6456500488758553
28.652387698974916,0.6542033235581622
28.6623885323777,0.6639784946236559
28.672389365780482,0.646871945259042
28.682390199183267,0.6432062561094819
28.692391032586052,0.646871945259042
28.702391865988833,0.6419843597262952
28.712392699391618,0.655425219941349
28.722393532794403,0.6603128054740958
28.732394366197184,0.6444281524926686
28.74239519959997,0.6542033235581622
28.752396033002753,0.646871945259042
28.762396866405535,0.646871945259042
28.77239769980832,0.6419843597262952
28.7823985332111,0.6432062561094819
28.792399366613886,0.6542033235581622
28.80240020001667,0.6480938416422287
28.81240103341945,0.6542033235581622
28.822401866822236,0.6542033235581622
28.83240270022502,0.6480938416422287
28.842403533627802,0.646871945259042
28.852404367030587,0.646871945259042
28.862405200433372,0.6639784946236559
28.872406033836153,0.6603128054740958
28.882406867238938,0.655425219941349
28.892407700641723,0.6566471163245357
28.902408534044504,0.6566471163245357
28.91240936744729,0.6432062561094819
28.922410200850074,0.6517595307917888
28.932411034252855,0.6419843597262952
28.94241186765564,0.6493157380254154
28.952412701058424,0.6505376344086021
28.962413534461206,0.6493157380254154
28.97241436786399,0.6542033235581622
28.982415201266775,0.6529814271749755
28.992416034669557,0.646871945259042
29.00241686807234,0.6480938416422287
29.012417701475126,0.6566471163245357
29.022418534877907,0.6652003910068426
29.032419368280692,0.6884164222873901
29.042420201683473,0.7030791788856305
29.052421035086258,0.6871945259042033
29.062421868489043,0.6725317693059628
29.072422701891824,0.6859726295210166
29.08242353529461,0.6713098729227761
29.092424368697394,0.6358748778103617
29.102425202100175,0.6407624633431085
29.11242603550296,0.655425219941349
29.122426868905745,0.6639784946236559
29.132427702308526,0.6517595307917888
29.14242853571131,0.6517595307917888
29.152429369114095,0.6517595307917888
29.162430202516877,0.6529814271749755
29.17243103591966,0.6566471163245357
29.182431869322446,0.6590909090909091
29.192432702725228,0.6639784946236559
29.202433536128012,0.6639784946236559
29.212434369530797,0.6517595307917888
29.22243520293358,0.6517595307917888
29.232436036336363,0.6566471163245357
29.242436869739148,0.6566471163245357
29.25243770314193,0.6566471163245357
29.262438536544714,0.6603128054740958
29.2724393699475,0.655425219941349
29.28244020335028,0.6639784946236559
29.292441036753065,0.6615347018572825
29.30244187015585,0.6578690127077224
29.31244270355863,0.6688660801564027
29.322443536961416,0.6688660801564027
29.332444370364197,0.6639784946236559
29.34244520376698,0.667644183773216
29.352446037169766,0.6737536656891495
29.362446870572548,0.6835288367546432
29.372447703975332,0.6713098729227761
29.382448537378117,0.6761974584555229
29.3924493707809,0.6761974584555229
29.402450204183683,0.6774193548387096
29.412451037586468,0.6835288367546432
29.42245187098925,0.6847507331378299
29.432452704392034,0.6835288367546432
29.44245353779482,0.6835288367546432
29.4524543711976,0.6761974584555229
29.462455204600385,0.6627565982404692
29.47245603800317,0.6713098729227761
29.48245687140595,0.6615347018572825
29.492457704808736,0.6639784946236559
29.50245853821152,0.6603128054740958
29.5124593716143,0.655425219941349
29.522460205017087,0.6639784946236559
29.53246103841987,0.6529814271749755
29.542461871822653,0.6480938416422287
29.552462705225437,0.6480938416422287
29.562463538628222,0.6480938416422287
29.572464372031003,0.6639784946236559
29.582465205433788,0.6505376344086021
29.592466038836573,0.6639784946236559
29.602466872239354,0.6517595307917888
29.61246770564214,0.646871945259042
29.62246853904492,0.6517595307917888
29.632469372447705,0.6480938416422287
29.64247020585049,0.655425219941349
29.65247103925327,0.6590909090909091
29.662471872656056,0.655425219941349
29.67247270605884,0.6566471163245357
29.682473539461622,0.6566471163245357
29.692474372864407,0.6432062561094819
29.70247520626719,0.6578690127077224
29.712476039669973,0.646871945259042
29.722476873072758,0.6542033235581622
29.732477706475542,0.6603128054740958
29.742478539878324,0.655425219941349
29.75247937328111,0.6639784946236559
29.762480206683893,0.6566471163245357
29.772481040086674,0.6529814271749755
29.78248187348946,0.6566471163245357
29.792482706892244,0.646871945259042
29.802483540295025,0.6542033235581622
29.81248437369781,0.655425219941349
29.822485207100595,0.6542033235581622
29.832486040503376,0.6566471163245357
29.84248687390616,0.6517595307917888
29.852487707308946,0.6517595307917888
29.862488540711727,0.6529814271749755
29.87248937411451,0.6480938416422287
29.882490207517293,0.6542033235581622
29.892491040920078,0.6505376344086021
29.902491874322862,0.6542033235581622
29.912492707725644,0.6517595307917888
29.92249354112843,0.646871945259042
29.932494374531213,0.6517595307917888
29.942495207933995,0.646871945259042
29.95249604133678,0.6542033235581622
29.962496874739564,0.6590909090909091
29.972497708142345,0.6493157380254154
29.98249854154513,0.6639784946236559
29.992499374947915,0.6480938416422287
30.002500208350696,0.646871945259042
30.01250104175348,0.6517595307917888
30.022501875156266,0.6517595307917888
30.032502708559047,0.6542033235581622
30.042503541961832,0.6505376344086021
30.052504375364617,0.6578690127077224
30.062505208767398,0.6639784946236559
30.072506042170183,0.6529814271749755
30.082506875572967,0.6432062561094819
30.09250770897575,0.6578690127077224
30.102508542378533,0.6480938416422287
30.11250937578132,0.6493157380254154
30.1225102091841,0.6505376344086021
30.132511042586884,0.6542033235581622
30.14251187598967,0.6639784946236559
30.15251270939245,0.6517595307917888
30.162513542795235,0.6480938416422287
30.172514376198016,0.6578690127077224
30.1825152096008,0.646871945259042
30.192516043003586,0.6639784946236559
30.202516876406367,0.655425219941349
30.212517709809152,0.6566471163245357
30.222518543211937,0.6578690127077224
30.232519376614718,0.6578690127077224
30.242520210017503,0.6529814271749755
30.252521043420288,0.6627565982404692
30.26252187682307,0.6578690127077224
30.272522710225854,0.6590909090909091
30.28252354362864,0.6566471163245357
30.29252437703142,0.6566471163245357
30.302525210434204,0.6529814271749755
30.31252604383699,0.646871945259042
30.32252687723977,0.646871945259042
30.332527710642555,0.646871945259042
30.34252854404534,0.6542033235581622
30.35252937744812,0.6590909090909091
30.362530210850906,0.6566471163245357
30.37253104425369,0.6542033235581622
30.382531877656472,0.6517595307917888
30.392532711059257,0.6517595307917888
30.40253354446204,0.6615347018572825
30.412534377864823,0.6810850439882697
30.422535211267608,0.6933040078201369
30.432536044670393,0.6994134897360704
30.442536878073174,0.6835288367546432
30.45253771147596,0.6884164222873901
30.46253854487874,0.6810850439882697
30.472539378281525,0.6432062561094819
30.48254021168431,0.6419843597262952
30.49254104508709,0.6517595307917888
30.502541878489875,0.6603128054740958
30.51254271189266,0.6639784946236559
30.52254354529544,0.6639784946236559
30.532544378698226,0.6566471163245357
30.54254521210101,0.6529814271749755
30.552546045503792,0.6615347018572825
30.562546878906577,0.6566471163245357
30.572547712309362,0.6639784946236559
30.582548545712143,0.6603128054740958
30.592549379114928,0.6652003910068426
30.602550212517713,0.6639784946236559
30.612551045920494,0.6615347018572825
30.62255187932328,0.6529814271749755
30.632552712726064,0.6627565982404692
30.642553546128845,0.6566471163245357
30.65255437953163,0.6737536656891495
30.662555212934414,0.6627565982404692
30.672556046337196,0.667644183773216
30.68255687973998,0.6664222873900293
30.692557713142765,0.6713098729227761
30.702558546545546,0.6688660801564027
30.71255937994833,0.6713098729227761
30.722560213351116,0.6688660801564027
30.732561046753897,0.6835288367546432
30.742561880156682,0.679863147605083
30.752562713559463,0.6884164222873901
30.762563546962248,0.6835288367546432
30.772564380365033,0.6810850439882697
30.782565213767814,0.6810850439882697
30.7925660471706,0.6810850439882697
30.802566880573384,0.6761974584555229
30.812567713976165,0.6933040078201369
30.82256854737895,0.679863147605083
30.832569380781734,0.6835288367546432
30.842570214184516,0.6835288367546432
30.8525710475873,0.6713098729227761
30.862571880990085,0.6615347018572825
30.872572714392867,0.6713098729227761
30.88257354779565,0.6566471163245357
30.892574381198436,0.6639784946236559
30.902575214601217,0.6603128054740958
30.912576048004002,0.6566471163245357
30.922576881406787,0.6639784946236559
30.932577714809568,0.6615347018572825
30.942578548212353,0.6529814271749755
30.952579381615138,0.6566471163245357
30.96258021501792,0.6542033235581622
30.972581048420704,0.6590909090909091
30.98258188182349,0.6639784946236559
30.99258271522627,0.6639784946236559
31.002583548629055,0.6566471163245357
31.012584382031836,0.6529814271749755
31.02258521543462,0.6615347018572825
31.032586048837405,0.6480938416422287
31.042586882240187,0.6639784946236559
31.05258771564297,0.6603128054740958
31.062588549045756,0.6542033235581622
31.072589382448538,0.6664222873900293
31.082590215851322,0.6566471163245357
31.092591049254107,0.6529814271749755
31.10259188265689,0.646871945259042
31.112592716059673,0.6615347018572825
31.122593549462458,0.6566471163245357
31.13259438286524,0.655425219941349
31.142595216268024,0.6639784946236559
31.15259604967081,0.6566471163245357
31.16259688307359,0.6529814271749755
31.172597716476375,0.6517595307917888
31.18259854987916,0.6566471163245357
31.19259938328194,0.6639784946236559
31.202600216684726,0.6603128054740958
31.21260105008751,0.6578690127077224
31.22260188349029,0.6639784946236559
31.232602716893076,0.6529814271749755
31.24260355029586,0.6517595307917888
31.252604383698642,0.6517595307917888
31.262605217101427,0.6578690127077224
31.272606050504212,0.655425219941349
31.282606883906993,0.6505376344086021
31.292607717309778,0.6639784946236559
31.30260855071256,0.6664222873900293
31.312609384115344,0.6566471163245357
31.32261021751813,0.6529814271749755
31.33261105092091,0.6578690127077224
31.342611884323695,0.6529814271749755
31.35261271772648,0.6566471163245357
31.36261355112926,0.6603128054740958
31.372614384532046,0.6639784946236559
31.38261521793483,0.6639784946236559
31.392616051337612,0.6517595307917888
31.402616884740397,0.6578690127077224
31.41261771814318,0.6517595307917888
31.422618551545963,0.6542033235581622
31.432619384948747,0.6603128054740958
31.442620218351532,0.6578690127077224
31.452621051754313,0.6639784946236559
31.4626218851571,0.6517595307917888
31.472622718559883,0.6480938416422287
31.482623551962664,0.6578690127077224
31.49262438536545,0.6615347018572825
31.502625218768234,0.6652003910068426
31.512626052171015,0.6652003910068426
31.5226268855738,0.6737536656891495
31.532627718976585,0.6664222873900293
31.542628552379366,0.6578690127077224
31.55262938578215,0.6627565982404692
31.562630219184935,0.6615347018572825
31.572631052587717,0.6688660801564027
31.5826318859905,0.6578690127077224
31.592632719393283,0.6603128054740958
31.602633552796068,0.655425219941349
31.612634386198852,0.6639784946236559
31.622635219601634,0.6578690127077224
31.63263605300442,0.6529814271749755
31.642636886407203,0.6615347018572825
31.652637719809984,0.6529814271749755
31.66263855321277,0.6639784946236559
31.672639386615554,0.6529814271749755
31.682640220018335,0.6664222873900293
31.69264105342112,0.6688660801564027
31.702641886823905,0.6957478005865103
31.712642720226686,0.7006353861192571
31.72264355362947,0.6823069403714564
31.732644387032256,0.6884164222873901
31.742645220435037,0.679863147605083
31.75264605383782,0.6542033235581622
31.762646887240606,0.6493157380254154
31.772647720643388,0.6529814271749755
31.782648554046173,0.6578690127077224
31.792649387448957,0.6615347018572825
31.80265022085174,0.6517595307917888
31.812651054254523,0.6639784946236559
31.822651887657308,0.6603128054740958
31.83265272106009,0.6652003910068426
31.842653554462874,0.6664222873900293
31.852654387865655,0.6688660801564027
31.86265522126844,0.6529814271749755
31.872656054671225,0.6713098729227761
31.882656888074006,0.6615347018572825
31.89265772147679,0.6737536656891495
31.902658554879576,0.6627565982404692
31.912659388282357,0.667644183773216
31.922660221685142,0.6835288367546432
31.932661055087927,0.6664222873900293
31.942661888490708,0.6627565982404692
31.952662721893493,0.6761974584555229
31.962663555296277,0.6713098729227761
31.97266438869906,0.6835288367546432
31.982665222101843,0.6786412512218963
31.99266605550463,0.6749755620723362
32.00266688890741,0.6884164222873901
32.01266772231019,0.6859726295210166
32.022668555712976,0.6725317693059628
32.03266938911576,0.6908602150537635
32.042670222518545,0.6823069403714564
